Interval=	0,0005 s
ExcelDateTime=	4,5909525146961954e+004	9/09/2025 12:36:12,697512
TimeFormat=	StartOfBlock
DateFormat=	
ChannelTitle=	Biceps	Triceps
Range=	1000,0 µV	1000,0 µV
0	0,1	-0,0
0,0005	0,8	-0,3
0,001	2,0	-1,3
0,0015	1,5	-3,0
0,002	-3,2	-4,9
0,0025	-12,8	-6,5
0,003	-26,3	-7,8
0,0035	-41,6	-8,8
0,004	-56,4	-9,8
0,0045	-68,4	-10,4
0,005	-75,2	-10,3
0,0055	-75,7	-9,2
0,006	-70,0	-7,3
0,0065	-59,2	-4,8
0,007	-44,8	-2,3
0,0075	-28,3	0,1
0,008	-11,1	2,2
0,0085	6,1	4,0
0,009	22,7	5,5
0,0095	38,2	7,0
0,01	51,7	8,5
0,0105	62,4	9,9
0,011	70,2	11,2
0,0115	75,7	12,5
0,012	79,7	14,0
0,0125	82,1	15,5
0,013	81,8	16,8
0,0135	77,2	17,1
0,014	67,8	15,8
0,0145	56,1	13,1
0,015	46,2	9,6
0,0155	41,7	6,0
0,016	43,2	3,1
0,0165	48,9	0,9
0,017	56,0	-0,9
0,0175	62,7	-2,8
0,018	68,5	-5,0
0,0185	73,2	-7,3
0,019	75,3	-9,7
0,0195	73,7	-11,5
0,02	68,8	-12,8
0,0205	62,3	-13,5
0,021	55,7	-13,7
0,0215	50,1	-13,3
0,022	45,7	-12,1
0,0225	41,7	-10,1
0,023	36,6	-7,7
0,0235	30,0	-5,8
0,024	22,4	-4,9
0,0245	15,3	-4,9
0,025	9,6	-5,3
0,0255	5,7	-5,4
0,026	3,3	-4,8
0,0265	2,6	-3,7
0,027	3,4	-2,6
0,0275	5,2	-1,9
0,028	7,8	-2,0
0,0285	11,2	-2,6
0,029	15,0	-3,4
0,0295	18,7	-3,8
0,03	21,1	-3,6
0,0305	22,1	-3,0
0,031	22,0	-2,4
0,0315	21,0	-1,8
0,032	19,2	-1,4
0,0325	16,9	-1,6
0,033	14,5	-2,1
0,0335	12,3	-2,5
0,034	10,7	-2,5
0,0345	9,7	-1,9
0,035	9,1	-1,3
0,0355	8,9	-0,8
0,036	9,2	-0,8
0,0365	10,5	-1,0
0,037	13,2	-0,8
0,0375	16,8	0,1
0,038	20,6	1,5
0,0385	23,8	3,0
0,039	25,6	4,4
0,0395	25,8	5,5
0,04	24,6	5,8
0,0405	23,1	5,4
0,041	23,0	4,4
0,0415	25,5	3,3
0,042	30,5	2,4
0,0425	36,1	1,5
0,043	40,7	0,8
0,0435	43,8	0,6
0,044	46,2	0,8
0,0445	47,9	1,1
0,045	47,5	0,7
0,0455	44,3	-0,6
0,046	38,8	-2,3
0,0465	32,6	-3,8
0,047	27,0	-4,7
0,0475	22,4	-5,2
0,048	19,0	-5,9
0,0485	16,6	-7,1
0,049	14,3	-8,6
0,0495	11,0	-9,6
0,05	6,3	-9,7
0,0505	1,3	-8,9
0,051	-2,9	-7,6
0,0515	-5,1	-6,4
0,052	-5,0	-5,5
0,0525	-2,5	-4,8
0,053	2,2	-3,8
0,0535	8,1	-2,7
0,054	14,1	-1,3
0,0545	18,8	0,3
0,055	21,4	1,8
0,0555	21,8	2,7
0,056	20,4	2,6
0,0565	17,6	1,3
0,057	13,4	-0,7
0,0575	8,0	-2,7
0,058	2,1	-3,9
0,0585	-3,7	-4,1
0,059	-8,8	-3,6
0,0595	-13,8	-2,8
0,06	-18,8	-2,1
0,0605	-22,8	-1,6
0,061	-24,8	-1,2
0,0615	-23,7	-0,7
0,062	-19,0	0,0
0,0625	-11,3	0,8
0,063	-1,9	1,7
0,0635	6,9	2,7
0,064	13,1	3,3
0,0645	15,3	3,2
0,065	14,4	2,0
0,0655	12,6	0,3
0,066	12,2	-1,3
0,0665	13,8	-2,5
0,067	16,7	-3,1
0,0675	19,3	-3,0
0,068	21,3	-2,5
0,0685	23,5	-2,1
0,069	26,9	-2,2
0,0695	31,6	-3,0
0,07	36,6	-4,3
0,0705	40,7	-5,8
0,071	43,7	-7,1
0,0715	45,6	-7,5
0,072	46,8	-7,1
0,0725	47,8	-5,9
0,073	49,1	-4,7
0,0735	51,0	-3,8
0,074	53,3	-3,7
0,0745	55,2	-3,9
0,075	56,0	-4,2
0,0755	55,6	-4,3
0,076	53,8	-4,4
0,0765	50,3	-4,4
0,077	45,1	-4,3
0,0775	38,6	-3,8
0,078	32,0	-3,0
0,0785	25,8	-2,0
0,079	20,9	-1,3
0,0795	17,9	-1,3
0,08	17,0	-2,1
0,0805	17,3	-3,2
0,081	16,3	-4,0
0,0815	10,8	-4,1
0,082	-1,2	-3,8
0,0825	-18,2	-3,3
0,083	-35,6	-2,8
0,0835	-48,9	-2,5
0,084	-55,9	-2,3
0,0845	-56,4	-2,1
0,085	-51,5	-2,0
0,0855	-41,9	-1,8
0,086	-28,5	-1,3
0,0865	-12,9	-0,5
0,087	3,0	0,7
0,0875	17,1	2,2
0,088	28,6	4,2
0,0885	38,1	6,6
0,089	46,3	9,1
0,0895	52,5	11,0
0,09	56,3	12,2
0,0905	58,1	12,9
0,091	59,1	13,5
0,0915	59,8	14,4
0,092	59,6	15,2
0,0925	58,7	15,2
0,093	57,7	14,0
0,0935	56,4	11,7
0,094	53,6	9,0
0,0945	48,3	6,6
0,095	40,5	4,8
0,0955	31,1	3,3
0,096	21,1	1,9
0,0965	12,5	0,1
0,097	7,1	-2,1
0,0975	5,7	-4,5
0,098	7,6	-6,7
0,0985	10,0	-8,3
0,099	9,6	-9,2
0,0995	4,9	-9,7
0,1	-2,8	-10,2
0,1005	-11,1	-11,2
0,101	-17,6	-12,8
0,1015	-20,9	-14,4
0,102	-20,8	-15,3
0,1025	-17,6	-15,1
0,103	-12,0	-13,9
0,1035	-5,1	-12,4
0,104	2,1	-10,6
0,1045	9,6	-8,5
0,105	17,8	-6,2
0,1055	26,8	-3,8
0,106	35,8	-1,7
0,1065	44,0	-0,3
0,107	50,0	0,2
0,1075	52,7	0,0
0,108	51,7	-0,2
0,1085	47,8	0,1
0,109	43,0	1,1
0,1095	39,6	2,9
0,11	38,9	5,2
0,1105	40,1	7,3
0,111	41,3	8,5
0,1115	40,7	8,4
0,112	38,0	7,3
0,1125	34,7	5,5
0,113	31,4	3,4
0,1135	27,8	0,7
0,114	23,2	-2,8
0,1145	17,9	-6,1
0,115	13,3	-8,5
0,1155	10,5	-9,3
0,116	9,7	-9,0
0,1165	9,7	-8,1
0,117	8,9	-7,1
0,1175	6,3	-6,2
0,118	1,9	-5,5
0,1185	-3,4	-5,2
0,119	-9,6	-5,1
0,1195	-17,3	-5,2
0,12	-26,1	-5,0
0,1205	-34,6	-4,5
0,121	-41,3	-4,1
0,1215	-44,9	-3,9
0,122	-44,7	-4,0
0,1225	-40,3	-3,9
0,123	-32,0	-3,4
0,1235	-21,0	-2,6
0,124	-8,5	-2,0
0,1245	4,4	-1,8
0,125	16,2	-2,0
0,1255	25,8	-2,1
0,126	32,9	-1,3
0,1265	37,8	1,0
0,127	40,8	4,7
0,1275	42,0	8,9
0,128	41,8	13,0
0,1285	40,6	16,4
0,129	39,0	19,1
0,1295	37,8	21,4
0,13	37,8	23,4
0,1305	40,0	24,4
0,131	44,8	23,5
0,1315	50,6	19,9
0,132	54,7	13,9
0,1325	55,1	6,0
0,133	52,3	-2,3
0,1335	47,9	-9,7
0,134	42,4	-15,0
0,1345	35,0	-17,9
0,135	25,2	-18,5
0,1355	13,8	-17,7
0,136	2,9	-16,4
0,1365	-5,9	-15,0
0,137	-11,6	-13,3
0,1375	-14,3	-11,4
0,138	-14,1	-9,3
0,1385	-11,5	-7,6
0,139	-7,4	-6,3
0,1395	-2,8	-5,7
0,14	0,3	-5,9
0,1405	1,3	-6,8
0,141	0,8	-8,1
0,1415	0,7	-9,1
0,142	2,1	-9,1
0,1425	5,0	-8,1
0,143	8,5	-6,3
0,1435	11,9	-4,2
0,144	14,9	-2,0
0,1445	17,5	0,0
0,145	19,7	1,6
0,1455	22,3	2,3
0,146	26,3	2,1
0,1465	32,3	1,4
0,147	39,4	0,6
0,1475	45,7	-0,4
0,148	49,5	-1,3
0,1485	50,7	-2,1
0,149	50,3	-2,8
0,1495	48,4	-3,6
0,15	44,4	-4,5
0,1505	37,7	-5,4
0,151	28,5	-6,2
0,1515	18,7	-7,0
0,152	10,1	-7,9
0,1525	4,6	-8,9
0,153	2,9	-9,8
0,1535	4,3	-10,7
0,154	6,9	-11,4
0,1545	9,6	-11,7
0,155	12,2	-11,4
0,1555	15,1	-10,5
0,156	19,0	-9,3
0,1565	23,7	-7,8
0,157	28,5	-6,0
0,1575	31,8	-4,2
0,158	32,5	-2,4
0,1585	30,8	-1,0
0,159	28,3	0,0
0,1595	26,0	0,5
0,16	24,1	0,7
0,1605	21,4	0,5
0,161	15,9	-0,0
0,1615	6,6	-0,8
0,162	-5,7	-1,8
0,1625	-17,9	-3,0
0,163	-26,6	-4,3
0,1635	-29,6	-5,6
0,164	-26,9	-6,7
0,1645	-19,7	-7,4
0,165	-9,7	-7,6
0,1655	1,8	-6,9
0,166	13,3	-5,4
0,1665	24,2	-2,9
0,167	33,9	0,2
0,1675	42,0	3,6
0,168	48,2	6,4
0,1685	52,8	8,6
0,169	56,0	10,2
0,1695	58,0	11,4
0,17	58,6	12,2
0,1705	57,6	12,5
0,171	54,5	12,6
0,1715	48,4	12,7
0,172	39,8	12,2
0,1725	31,9	10,7
0,173	28,3	8,1
0,1735	29,4	5,0
0,174	32,6	2,2
0,1745	34,8	0,3
0,175	34,6	-0,8
0,1755	32,9	-1,7
0,176	31,1	-2,3
0,1765	30,2	-2,6
0,177	30,3	-2,4
0,1775	30,9	-1,9
0,178	32,1	-1,5
0,1785	33,8	-1,1
0,179	35,2	-0,8
0,1795	35,7	-0,8
0,18	35,2	-0,8
0,1805	34,3	-0,5
0,181	33,7	0,1
0,1815	33,5	1,2
0,182	33,8	2,3
0,1825	33,9	3,2
0,183	32,7	3,1
0,1835	29,2	1,7
0,184	23,5	-0,7
0,1845	16,8	-3,3
0,185	9,8	-5,4
0,1855	2,8	-7,0
0,186	-3,4	-8,3
0,1865	-7,2	-10,0
0,187	-7,1	-12,2
0,1875	-3,1	-14,5
0,188	3,3	-16,3
0,1885	9,1	-17,3
0,189	11,1	-17,6
0,1895	7,7	-17,7
0,19	1,0	-17,4
0,1905	-5,1	-16,1
0,191	-6,9	-13,5
0,1915	-3,8	-9,8
0,192	2,3	-5,9
0,1925	8,9	-2,7
0,193	14,0	-0,3
0,1935	16,8	1,4
0,194	18,0	2,7
0,1945	19,1	3,8
0,195	21,4	4,8
0,1955	24,0	5,6
0,196	25,2	5,8
0,1965	24,0	5,3
0,197	21,6	4,2
0,1975	20,2	2,8
0,198	21,3	1,5
0,1985	24,9	0,5
0,199	29,8	-0,3
0,1995	33,5	-1,1
0,2	34,6	-2,6
0,2005	32,6	-5,1
0,201	28,5	-8,2
0,2015	24,5	-11,1
0,202	21,7	-13,4
0,2025	20,3	-15,1
0,203	19,3	-16,2
0,2035	17,8	-17,1
0,204	15,7	-17,9
0,2045	13,3	-18,6
0,205	11,4	-18,9
0,2055	10,0	-18,4
0,206	8,2	-16,7
0,2065	5,2	-14,3
0,207	1,3	-11,8
0,2075	-2,2	-9,8
0,208	-4,2	-8,8
0,2085	-4,1	-8,4
0,209	-2,2	-8,5
0,2095	1,1	-8,4
0,21	5,1	-8,1
0,2105	9,4	-7,5
0,211	13,7	-6,7
0,2115	17,8	-5,5
0,212	21,2	-3,8
0,2125	23,7	-2,0
0,213	25,6	-0,3
0,2135	27,2	0,9
0,214	28,6	2,0
0,2145	29,8	3,1
0,215	30,9	4,3
0,2155	32,2	5,4
0,216	34,3	6,6
0,2165	37,3	7,6
0,217	39,4	7,9
0,2175	38,0	7,1
0,218	31,7	4,7
0,2185	22,0	0,9
0,219	11,9	-3,7
0,2195	3,8	-8,1
0,22	-1,0	-11,3
0,2205	-1,8	-12,5
0,221	1,1	-11,2
0,2215	6,7	-8,0
0,222	13,4	-4,6
0,2225	19,5	-2,6
0,223	24,2	-3,1
0,2235	27,1	-5,8
0,224	28,6	-9,6
0,2245	29,1	-13,3
0,225	29,1	-15,9
0,2255	28,9	-16,9
0,226	28,3	-16,6
0,2265	27,2	-15,3
0,227	24,8	-13,4
0,2275	19,7	-10,9
0,228	10,8	-7,8
0,2285	-0,7	-4,3
0,229	-11,8	-1,6
0,2295	-20,0	-0,8
0,23	-25,0	-2,4
0,2305	-27,8	-5,4
0,231	-29,9	-8,6
0,2315	-32,2	-11,0
0,232	-35,4	-12,5
0,2325	-39,5	-13,2
0,233	-43,4	-13,3
0,2335	-44,9	-13,0
0,234	-42,4	-12,8
0,2345	-35,7	-12,5
0,235	-25,5	-12,4
0,2355	-12,7	-12,1
0,236	1,4	-11,0
0,2365	15,9	-9,2
0,237	30,0	-7,0
0,2375	43,2	-4,6
0,238	55,5	-2,3
0,2385	66,7	-0,4
0,239	76,4	0,8
0,2395	84,1	1,1
0,24	88,4	0,9
0,2405	88,7	0,4
0,241	85,2	-0,3
0,2415	79,1	-1,3
0,242	72,0	-2,2
0,2425	64,7	-2,7
0,243	58,3	-2,9
0,2435	53,8	-3,1
0,244	51,4	-3,5
0,2445	50,9	-4,1
0,245	50,9	-4,6
0,2455	50,5	-4,6
0,246	49,4	-4,5
0,2465	48,0	-4,7
0,247	47,1	-5,5
0,2475	46,6	-6,5
0,248	46,3	-7,2
0,2485	45,9	-7,2
0,249	44,9	-6,3
0,2495	42,4	-4,8
0,25	37,8	-2,7
0,2505	31,7	-0,1
0,251	25,8	2,5
0,2515	21,9	4,4
0,252	20,2	5,3
0,2525	19,7	5,3
0,253	18,9	4,8
0,2535	17,0	4,1
0,254	14,3	3,6
0,2545	11,8	3,3
0,255	10,4	3,2
0,2555	9,9	2,5
0,256	9,7	1,0
0,2565	9,7	-1,2
0,257	10,0	-3,2
0,2575	9,9	-4,7
0,258	7,3	-5,9
0,2585	0,2	-7,0
0,259	-11,3	-8,3
0,2595	-24,7	-9,3
0,26	-36,8	-10,2
0,2605	-45,3	-10,7
0,261	-48,6	-10,8
0,2615	-45,5	-10,3
0,262	-36,5	-9,2
0,2625	-23,3	-7,9
0,263	-8,2	-7,0
0,2635	7,3	-6,8
0,264	22,1	-7,3
0,2645	34,3	-8,7
0,265	42,2	-10,9
0,2655	45,0	-13,7
0,266	43,8	-16,3
0,2665	40,6	-17,9
0,267	37,3	-18,0
0,2675	34,3	-16,6
0,268	30,9	-14,3
0,2685	26,1	-11,7
0,269	21,0	-9,6
0,2695	18,0	-8,6
0,27	18,0	-8,9
0,2705	19,0	-10,1
0,271	18,2	-11,6
0,2715	15,0	-12,5
0,272	11,4	-12,3
0,2725	9,9	-11,0
0,273	11,8	-8,8
0,2735	16,1	-6,3
0,274	20,8	-4,1
0,2745	24,7	-2,5
0,275	27,4	-1,5
0,2755	28,8	-0,8
0,276	29,0	-0,1
0,2765	28,6	0,8
0,277	28,6	2,1
0,2775	29,4	4,0
0,278	29,9	6,1
0,2785	27,9	8,1
0,279	22,8	9,8
0,2795	16,0	11,1
0,28	10,8	12,1
0,2805	9,7	12,8
0,281	13,2	12,8
0,2815	19,4	11,4
0,282	25,7	7,9
0,2825	29,8	2,9
0,283	31,5	-2,2
0,2835	32,4	-5,9
0,284	34,0	-7,6
0,2845	37,2	-7,5
0,285	41,3	-6,4
0,2855	45,1	-5,5
0,286	47,0	-5,3
0,2865	46,0	-5,8
0,287	41,5	-6,5
0,2875	33,5	-6,8
0,288	23,6	-6,6
0,2885	14,5	-5,8
0,289	8,3	-5,0
0,2895	5,5	-4,4
0,29	4,8	-4,4
0,2905	4,4	-4,8
0,291	3,1	-5,4
0,2915	0,9	-6,2
0,292	-1,8	-7,2
0,2925	-4,1	-8,2
0,293	-5,8	-8,6
0,2935	-6,5	-8,0
0,294	-6,2	-6,5
0,2945	-4,7	-4,6
0,295	-2,4	-3,1
0,2955	-0,6	-2,3
0,296	-0,8	-2,4
0,2965	-3,7	-3,0
0,297	-8,0	-3,8
0,2975	-11,6	-4,4
0,298	-12,4	-4,5
0,2985	-10,1	-4,2
0,299	-5,3	-3,6
0,2995	0,3	-3,0
0,3	5,4	-2,7
0,3005	9,1	-2,8
0,301	11,8	-3,4
0,3015	15,0	-4,1
0,302	20,4	-4,7
0,3025	28,3	-4,8
0,303	37,0	-4,3
0,3035	43,5	-3,7
0,304	45,8	-3,4
0,3045	43,0	-3,4
0,305	35,9	-3,7
0,3055	26,3	-3,7
0,306	16,4	-3,2
0,3065	8,6	-2,7
0,307	4,4	-2,8
0,3075	4,8	-3,7
0,308	9,2	-4,8
0,3085	16,2	-5,8
0,309	23,8	-6,1
0,3095	31,0	-5,5
0,31	37,0	-3,9
0,3105	42,0	-1,7
0,311	46,1	0,5
0,3115	49,0	2,2
0,312	50,1	3,1
0,3125	49,1	3,3
0,313	46,2	2,9
0,3135	42,1	2,2
0,314	37,8	1,3
0,3145	34,0	0,4
0,315	31,4	-0,3
0,3155	30,7	-0,9
0,316	32,6	-1,8
0,3165	36,1	-3,7
0,317	38,9	-6,6
0,3175	38,4	-10,3
0,318	33,6	-13,9
0,3185	25,5	-16,8
0,319	16,4	-18,4
0,3195	8,8	-18,1
0,32	4,4	-16,2
0,3205	3,2	-13,4
0,321	4,2	-10,6
0,3215	5,7	-8,4
0,322	6,6	-7,4
0,3225	7,2	-7,2
0,323	8,3	-7,3
0,3235	10,5	-7,5
0,324	13,4	-7,5
0,3245	16,1	-7,5
0,325	17,5	-7,7
0,3255	17,7	-7,6
0,326	17,3	-7,2
0,3265	17,7	-6,1
0,327	19,5	-4,4
0,3275	22,1	-2,5
0,328	24,7	-1,0
0,3285	26,2	0,0
0,329	26,5	0,3
0,3295	26,3	-0,3
0,33	26,4	-1,8
0,3305	26,6	-3,8
0,331	25,7	-5,9
0,3315	22,3	-8,0
0,332	16,6	-9,8
0,3325	10,2	-10,9
0,333	5,1	-11,4
0,3335	2,2	-11,4
0,334	1,4	-11,3
0,3345	1,8	-11,2
0,335	2,5	-11,1
0,3355	3,0	-10,8
0,336	3,1	-9,9
0,3365	3,7	-8,4
0,337	5,2	-6,6
0,3375	6,9	-4,7
0,338	6,8	-3,3
0,3385	3,5	-2,7
0,339	-2,1	-2,6
0,3395	-7,2	-2,8
0,34	-9,2	-2,6
0,3405	-6,9	-1,9
0,341	-0,8	-1,0
0,3415	7,8	0,1
0,342	17,5	1,3
0,3425	27,4	2,5
0,343	36,7	3,3
0,3435	44,5	3,5
0,344	50,0	3,0
0,3445	52,7	1,8
0,345	53,0	0,2
0,3455	52,5	-1,3
0,346	52,8	-2,8
0,3465	54,3	-4,3
0,347	55,3	-6,5
0,3475	52,3	-9,5
0,348	42,5	-12,7
0,3485	27,5	-15,6
0,349	12,7	-17,8
0,3495	3,5	-19,6
0,35	0,4	-21,1
0,3505	0,4	-21,8
0,351	1,6	-21,2
0,3515	4,0	-19,5
0,352	8,3	-16,8
0,3525	14,1	-14,3
0,353	19,8	-12,8
0,3535	23,1	-13,0
0,354	22,6	-14,8
0,3545	18,4	-16,8
0,355	12,5	-18,1
0,3555	7,3	-18,0
0,356	4,8	-16,6
0,3565	4,8	-14,7
0,357	6,3	-12,9
0,3575	8,7	-11,5
0,358	11,3	-10,0
0,3585	13,5	-8,2
0,359	15,1	-6,3
0,3595	16,4	-4,6
0,36	17,7	-3,5
0,3605	19,2	-2,9
0,361	20,9	-2,5
0,3615	23,0	-2,0
0,362	26,0	-1,2
0,3625	30,2	-0,2
0,363	34,9	0,8
0,3635	39,4	1,5
0,364	43,3	2,0
0,3645	46,8	2,1
0,365	49,5	1,6
0,3655	50,1	0,3
0,366	46,1	-1,7
0,3665	36,8	-4,0
0,367	24,2	-6,0
0,3675	12,3	-7,3
0,368	4,2	-7,9
0,3685	0,6	-8,2
0,369	-0,1	-8,6
0,3695	-0,1	-9,3
0,37	-1,6	-10,3
0,3705	-5,6	-11,2
0,371	-11,5	-11,5
0,3715	-17,5	-11,1
0,372	-21,4	-9,9
0,3725	-22,3	-8,6
0,373	-21,0	-7,2
0,3735	-19,0	-5,8
0,374	-18,3	-4,5
0,3745	-19,7	-3,4
0,375	-22,0	-2,6
0,3755	-22,3	-1,9
0,376	-19,0	-1,2
0,3765	-12,4	-0,3
0,377	-4,7	0,4
0,3775	2,8	0,8
0,378	9,8	1,5
0,3785	16,2	2,9
0,379	21,8	5,1
0,3795	26,1	7,5
0,38	29,2	9,4
0,3805	31,1	10,1
0,381	32,1	9,6
0,3815	32,8	8,7
0,382	34,2	7,7
0,3825	37,0	6,7
0,383	40,7	5,3
0,3835	43,6	4,1
0,384	45,0	3,2
0,3845	45,3	3,0
0,385	45,4	3,0
0,3855	44,9	2,6
0,386	42,8	1,0
0,3865	38,4	-2,5
0,387	31,9	-7,5
0,3875	23,4	-12,6
0,388	13,6	-16,4
0,3885	3,5	-18,2
0,389	-5,4	-18,1
0,3895	-11,5	-16,9
0,39	-14,2	-15,3
0,3905	-13,8	-13,7
0,391	-11,0	-12,3
0,3915	-7,4	-11,1
0,392	-4,5	-10,3
0,3925	-3,6	-9,5
0,393	-4,6	-8,8
0,3935	-6,5	-8,1
0,394	-7,9	-7,6
0,3945	-8,1	-7,0
0,395	-6,9	-6,1
0,3955	-4,3	-4,7
0,396	-0,6	-3,2
0,3965	3,6	-1,9
0,397	8,1	-0,8
0,3975	12,9	0,1
0,398	17,7	1,0
0,3985	22,4	2,3
0,399	27,7	3,8
0,3995	33,4	5,2
0,4	38,0	6,1
0,4005	39,8	6,6
0,401	37,7	6,8
0,4015	32,4	6,4
0,402	25,4	5,6
0,4025	18,3	4,6
0,403	12,7	3,4
0,4035	9,0	2,1
0,404	7,7	0,9
0,4045	9,0	-0,1
0,405	13,1	-0,4
0,4055	19,7	0,0
0,406	27,7	0,9
0,4065	34,5	1,7
0,407	37,8	1,8
0,4075	37,0	1,0
0,408	34,0	-0,3
0,4085	31,0	-1,4
0,409	29,1	-2,3
0,4095	27,8	-3,3
0,41	26,2	-4,5
0,4105	24,2	-6,3
0,411	22,2	-8,3
0,4115	20,8	-9,8
0,412	20,5	-10,4
0,4125	21,4	-10,1
0,413	22,6	-9,6
0,4135	22,8	-9,3
0,414	21,4	-9,3
0,4145	19,0	-9,3
0,415	16,7	-9,3
0,4155	15,0	-9,3
0,416	14,3	-9,1
0,4165	14,3	-8,7
0,417	15,0	-7,7
0,4175	16,0	-6,3
0,418	17,0	-4,8
0,4185	18,1	-3,5
0,419	19,3	-2,2
0,4195	20,8	-0,7
0,42	22,3	1,1
0,4205	23,0	2,8
0,421	22,4	4,3
0,4215	20,9	5,3
0,422	19,2	5,9
0,4225	18,1	6,2
0,423	17,4	6,3
0,4235	16,3	5,9
0,424	14,2	4,9
0,4245	10,9	3,2
0,425	7,4	0,8
0,4255	4,3	-1,8
0,426	1,9	-4,3
0,4265	-0,2	-6,1
0,427	-3,4	-6,8
0,4275	-8,7	-6,2
0,428	-14,8	-4,4
0,4285	-19,1	-1,7
0,429	-20,0	0,8
0,4295	-18,9	2,0
0,43	-18,3	1,2
0,4305	-18,7	-1,2
0,431	-18,5	-3,9
0,4315	-15,6	-5,7
0,432	-9,2	-5,6
0,4325	-0,2	-4,0
0,433	9,3	-2,2
0,4335	17,6	-1,6
0,434	24,1	-3,1
0,4345	29,2	-6,2
0,435	33,1	-9,4
0,4355	35,3	-11,5
0,436	35,4	-11,9
0,4365	33,1	-10,8
0,437	28,5	-8,7
0,4375	21,8	-5,8
0,438	14,8	-3,0
0,4385	10,4	-1,2
0,439	9,6	-1,2
0,4395	11,8	-2,3
0,44	15,4	-3,3
0,4405	19,8	-2,9
0,441	24,8	-1,6
0,4415	29,8	-0,5
0,442	34,0	-0,8
0,4425	36,6	-2,4
0,443	37,2	-4,4
0,4435	35,6	-5,6
0,444	32,1	-5,9
0,4445	26,0	-5,5
0,445	16,1	-4,9
0,4455	2,0	-4,4
0,446	-15,1	-3,9
0,4465	-32,4	-3,5
0,447	-47,4	-2,9
0,4475	-58,8	-2,1
0,448	-65,8	-1,3
0,4485	-68,6	-0,6
0,449	-67,4	-0,3
0,4495	-62,1	-0,2
0,45	-52,2	-0,1
0,4505	-37,6	0,1
0,451	-19,7	-0,0
0,4515	-1,1	-0,9
0,452	15,9	-2,7
0,4525	29,9	-4,9
0,453	40,9	-6,8
0,4535	49,4	-7,7
0,454	55,6	-7,2
0,4545	58,7	-5,3
0,455	57,7	-2,6
0,4555	53,1	0,2
0,456	46,5	2,1
0,4565	39,4	2,7
0,457	32,8	2,5
0,4575	28,2	1,9
0,458	26,6	0,8
0,4585	28,1	-1,3
0,459	31,4	-4,5
0,4595	35,2	-7,9
0,46	39,9	-10,6
0,4605	46,3	-12,1
0,461	53,5	-12,6
0,4615	59,1	-12,5
0,462	60,8	-12,0
0,4625	58,8	-11,3
0,463	54,6	-10,5
0,4635	50,1	-10,0
0,464	45,8	-9,9
0,4645	41,8	-10,4
0,465	37,5	-10,9
0,4655	32,3	-10,6
0,466	26,9	-9,7
0,4665	22,3	-8,7
0,467	19,7	-8,0
0,4675	18,8	-7,9
0,468	18,6	-8,3
0,4685	18,1	-9,2
0,469	17,1	-10,7
0,4695	16,2	-12,5
0,47	14,9	-14,5
0,4705	11,3	-16,0
0,471	3,8	-16,8
0,4715	-6,1	-16,8
0,472	-15,1	-16,0
0,4725	-20,8	-14,8
0,473	-22,8	-13,3
0,4735	-21,9	-12,0
0,474	-18,6	-10,7
0,4745	-13,6	-9,4
0,475	-7,6	-8,3
0,4755	-1,3	-7,3
0,476	5,0	-6,2
0,4765	11,5	-4,7
0,477	18,1	-3,3
0,4775	24,6	-2,0
0,478	30,7	-1,1
0,4785	36,1	0,0
0,479	40,1	1,2
0,4795	41,6	2,0
0,48	40,3	2,0
0,4805	36,9	1,3
0,481	32,3	0,4
0,4815	27,6	-0,4
0,482	23,3	-1,2
0,4825	19,5	-2,0
0,483	16,2	-3,0
0,4835	13,3	-4,0
0,484	10,5	-4,8
0,4845	7,8	-5,7
0,485	5,2	-6,6
0,4855	3,3	-7,2
0,486	2,2	-7,2
0,4865	2,0	-6,1
0,487	2,5	-4,0
0,4875	3,4	-1,1
0,488	4,4	2,2
0,4885	5,1	5,2
0,489	5,6	7,5
0,4895	5,8	9,0
0,49	6,2	9,8
0,4905	7,1	9,9
0,491	8,6	9,5
0,4915	10,4	9,1
0,492	12,1	9,0
0,4925	13,1	9,4
0,493	13,7	10,2
0,4935	14,1	11,1
0,494	14,4	11,7
0,4945	14,3	11,8
0,495	14,4	11,2
0,4955	16,1	9,6
0,496	20,4	6,6
0,4965	26,0	1,8
0,497	29,8	-4,3
0,4975	29,7	-11,0
0,498	26,0	-16,5
0,4985	21,0	-19,4
0,499	16,7	-18,8
0,4995	14,3	-15,3
0,5	14,0	-10,6
0,5005	15,1	-6,2
0,501	16,8	-3,1
0,5015	18,2	-1,6
0,502	18,5	-1,4
0,5025	17,8	-1,8
0,503	16,9	-2,3
0,5035	16,5	-2,1
0,504	16,6	-1,2
0,5045	16,9	0,2
0,505	17,5	1,9
0,5055	18,5	3,6
0,506	19,8	5,1
0,5065	21,1	6,4
0,507	22,0	7,3
0,5075	22,0	7,4
0,508	20,6	6,9
0,5085	18,2	5,6
0,509	15,2	3,9
0,5095	11,9	2,0
0,51	8,0	-0,2
0,5105	3,3	-3,2
0,511	-1,7	-6,7
0,5115	-5,5	-9,8
0,512	-6,5	-11,7
0,5125	-4,5	-12,1
0,513	-1,3	-11,8
0,5135	-0,6	-11,2
0,514	-5,3	-10,7
0,5145	-15,4	-10,0
0,515	-28,7	-8,5
0,5155	-42,1	-6,2
0,516	-52,9	-3,8
0,5165	-59,1	-2,4
0,517	-59,4	-2,4
0,5175	-53,4	-3,4
0,518	-41,0	-4,7
0,5185	-23,6	-5,6
0,519	-3,9	-5,9
0,5195	15,7	-5,8
0,52	33,6	-5,8
0,5205	48,4	-6,4
0,521	58,8	-7,8
0,5215	64,3	-9,8
0,522	65,5	-11,4
0,5225	63,8	-11,9
0,523	60,1	-10,7
0,5235	54,3	-8,3
0,524	45,7	-5,5
0,5245	35,8	-3,3
0,525	28,2	-2,4
0,5255	25,8	-2,7
0,526	28,8	-3,3
0,5265	34,0	-3,4
0,527	37,5	-2,7
0,5275	37,3	-1,5
0,528	34,0	-0,6
0,5285	28,3	-0,3
0,529	20,8	-0,5
0,5295	12,4	-0,8
0,53	4,3	-0,6
0,5305	-2,6	0,2
0,531	-7,9	1,1
0,5315	-10,8	1,3
0,532	-10,6	0,6
0,5325	-7,2	-1,3
0,533	-1,0	-3,7
0,5335	7,1	-5,9
0,534	16,1	-7,7
0,5345	25,3	-8,8
0,535	34,3	-9,4
0,5355	42,6	-10,0
0,536	49,4	-10,6
0,5365	53,7	-11,2
0,537	54,9	-11,3
0,5375	53,2	-10,5
0,538	49,5	-8,6
0,5385	45,4	-6,0
0,539	41,7	-3,3
0,5395	38,9	-1,3
0,54	37,0	-0,4
0,5405	36,4	-1,2
0,541	37,3	-3,4
0,5415	39,2	-6,1
0,542	40,6	-8,3
0,5425	40,4	-9,3
0,543	38,7	-8,9
0,5435	36,9	-7,4
0,544	36,3	-5,6
0,5445	37,2	-4,0
0,545	38,8	-3,1
0,5455	39,9	-2,5
0,546	39,7	-2,0
0,5465	38,0	-1,4
0,547	35,3	-0,4
0,5475	32,1	1,0
0,548	28,3	2,6
0,5485	23,3	3,9
0,549	16,7	4,1
0,5495	9,0	2,6
0,55	1,2	-0,3
0,5505	-5,8	-3,9
0,551	-11,2	-7,6
0,5515	-14,8	-10,7
0,552	-17,1	-12,8
0,5525	-18,6	-14,0
0,553	-20,0	-14,5
0,5535	-20,7	-14,4
0,554	-19,8	-13,9
0,5545	-16,9	-13,2
0,555	-12,5	-12,6
0,5555	-7,3	-12,2
0,556	-2,2	-11,5
0,5565	2,4	-10,2
0,557	6,9	-8,5
0,5575	11,8	-7,0
0,558	17,9	-6,3
0,5585	24,2	-6,6
0,559	29,1	-7,6
0,5595	31,3	-8,9
0,56	31,0	-10,2
0,5605	29,9	-10,8
0,561	29,4	-10,5
0,5615	30,3	-9,4
0,562	33,1	-7,5
0,5625	36,9	-5,2
0,563	40,1	-3,4
0,5635	41,2	-3,0
0,564	40,3	-4,0
0,5645	38,8	-5,8
0,565	37,7	-7,3
0,5655	37,3	-8,1
0,566	37,5	-8,0
0,5665	37,8	-6,9
0,567	38,2	-5,3
0,5675	38,8	-3,8
0,568	39,2	-2,9
0,5685	39,3	-2,4
0,569	39,4	-2,3
0,5695	40,5	-2,3
0,57	42,2	-2,5
0,5705	43,2	-2,8
0,571	42,2	-3,3
0,5715	38,8	-3,8
0,572	33,5	-4,7
0,5725	26,9	-5,8
0,573	18,7	-7,0
0,5735	7,8	-8,0
0,574	-5,7	-8,1
0,5745	-20,0	-7,3
0,575	-31,7	-6,1
0,5755	-38,7	-4,8
0,576	-40,9	-3,8
0,5765	-39,6	-3,0
0,577	-35,9	-2,7
0,5775	-30,4	-2,5
0,578	-23,3	-1,9
0,5785	-14,2	-0,8
0,579	-3,5	0,3
0,5795	8,1	0,6
0,58	19,8	-0,3
0,5805	30,2	-2,0
0,581	37,3	-3,7
0,5815	40,3	-4,7
0,582	39,5	-4,6
0,5825	36,2	-3,3
0,583	31,8	-1,3
0,5835	27,8	0,9
0,584	25,2	2,1
0,5845	24,7	1,4
0,585	26,8	-1,2
0,5855	31,7	-4,8
0,586	38,8	-8,1
0,5865	45,8	-10,2
0,587	50,7	-10,9
0,5875	51,9	-10,4
0,588	50,0	-9,3
0,5885	46,4	-7,9
0,589	42,6	-6,5
0,5895	39,5	-4,9
0,59	37,2	-3,4
0,5905	35,3	-2,4
0,591	33,1	-2,1
0,5915	29,7	-2,5
0,592	24,8	-3,2
0,5925	18,3	-4,1
0,593	10,5	-4,8
0,5935	1,9	-5,3
0,594	-6,5	-5,8
0,5945	-13,5	-6,3
0,595	-18,1	-7,2
0,5955	-19,2	-8,5
0,596	-16,2	-9,9
0,5965	-10,4	-11,3
0,597	-4,4	-12,6
0,5975	-0,0	-13,5
0,598	2,7	-13,7
0,5985	5,7	-12,3
0,599	10,4	-9,5
0,5995	16,7	-5,7
0,6	23,3	-1,8
0,6005	29,2	1,7
0,601	33,9	4,3
0,6015	37,0	6,2
0,602	37,8	7,1
0,6025	35,9	7,1
0,603	32,1	6,1
0,6035	27,8	4,0
0,604	24,9	1,0
0,6045	24,5	-2,1
0,605	26,9	-4,8
0,6055	30,9	-6,5
0,606	34,5	-7,5
0,6065	35,3	-8,5
0,607	31,3	-9,6
0,6075	21,8	-10,7
0,608	8,5	-11,3
0,6085	-5,4	-11,3
0,609	-16,6	-10,7
0,6095	-22,8	-9,6
0,61	-23,3	-8,3
0,6105	-18,8	-6,9
0,611	-11,1	-5,6
0,6115	-4,2	-4,5
0,612	-1,3	-4,2
0,6125	-2,8	-4,8
0,613	-5,9	-6,0
0,6135	-6,8	-7,1
0,614	-4,5	-8,0
0,6145	-0,3	-8,8
0,615	4,9	-9,4
0,6155	11,8	-9,5
0,616	21,2	-8,6
0,6165	31,5	-6,7
0,617	38,9	-4,2
0,6175	39,9	-1,8
0,618	35,2	-0,4
0,6185	28,6	-0,2
0,619	24,4	-1,4
0,6195	24,1	-3,8
0,62	26,2	-6,9
0,6205	28,7	-9,9
0,621	30,5	-11,9
0,6215	31,0	-12,4
0,622	30,2	-11,6
0,6225	29,1	-10,0
0,623	30,2	-8,8
0,6235	34,8	-8,5
0,624	41,5	-9,4
0,6245	47,8	-10,8
0,625	51,5	-11,9
0,6255	52,6	-12,4
0,626	52,0	-12,0
0,6265	50,7	-10,5
0,627	49,2	-8,2
0,6275	47,3	-5,2
0,628	44,7	-2,3
0,6285	41,5	0,1
0,629	38,1	1,5
0,6295	35,1	2,0
0,63	32,3	1,7
0,6305	29,8	0,7
0,631	27,7	-1,0
0,6315	25,8	-3,1
0,632	23,9	-4,7
0,6325	22,3	-5,2
0,633	21,0	-4,7
0,6335	19,6	-4,0
0,634	17,0	-3,8
0,6345	12,8	-4,7
0,635	7,4	-6,3
0,6355	1,8	-8,2
0,636	-3,9	-10,0
0,6365	-9,9	-11,6
0,637	-17,1	-12,8
0,6375	-25,2	-13,6
0,638	-32,6	-14,3
0,6385	-37,4	-14,8
0,639	-38,6	-15,3
0,6395	-36,7	-15,6
0,64	-33,0	-16,0
0,6405	-29,4	-16,7
0,641	-26,7	-17,5
0,6415	-24,7	-18,3
0,642	-22,4	-18,3
0,6425	-19,0	-17,2
0,643	-14,2	-14,9
0,6435	-7,5	-12,0
0,644	1,6	-9,1
0,6445	13,1	-6,4
0,645	26,4	-3,9
0,6455	40,1	-1,6
0,646	52,4	0,3
0,6465	62,1	1,4
0,647	68,3	1,7
0,6475	71,1	1,4
0,648	71,5	0,8
0,6485	70,3	-0,0
0,649	67,8	-1,3
0,6495	64,9	-2,8
0,65	62,2	-4,0
0,6505	60,1	-4,5
0,651	57,6	-4,8
0,6515	53,2	-5,5
0,652	46,2	-6,9
0,6525	36,9	-8,6
0,653	27,0	-10,2
0,6535	17,8	-11,6
0,654	10,4	-12,9
0,6545	4,9	-14,4
0,655	0,9	-16,3
0,6555	-2,6	-18,4
0,656	-6,0	-19,8
0,6565	-8,8	-19,9
0,657	-9,9	-18,2
0,6575	-8,5	-15,2
0,658	-4,9	-11,6
0,6585	-0,3	-8,2
0,659	4,8	-5,2
0,6595	10,6	-2,6
0,66	17,8	-0,3
0,6605	26,8	2,2
0,661	35,9	4,4
0,6615	42,3	6,3
0,662	43,7	7,6
0,6625	40,2	8,4
0,663	34,0	9,0
0,6635	28,1	9,6
0,664	24,1	10,0
0,6645	22,7	9,8
0,665	23,2	8,6
0,6655	24,4	5,6
0,666	25,4	0,7
0,6665	25,7	-5,8
0,667	25,3	-12,7
0,6675	25,0	-18,7
0,668	25,4	-23,3
0,6685	26,6	-26,5
0,669	27,9	-28,6
0,6695	28,3	-29,6
0,67	27,0	-29,8
0,6705	24,1	-29,5
0,671	20,9	-29,0
0,6715	18,8	-28,1
0,672	18,4	-26,9
0,6725	19,3	-25,3
0,673	20,4	-23,8
0,6735	21,3	-22,8
0,674	21,0	-22,2
0,6745	19,4	-22,1
0,675	16,4	-22,0
0,6755	11,8	-21,5
0,676	5,3	-20,3
0,6765	-3,2	-18,5
0,677	-12,7	-16,3
0,6775	-21,1	-14,4
0,678	-26,5	-12,9
0,6785	-27,9	-11,8
0,679	-25,8	-11,1
0,6795	-21,7	-10,8
0,68	-16,7	-10,6
0,6805	-11,6	-10,3
0,681	-6,2	-9,5
0,6815	-0,2	-8,4
0,682	6,7	-7,0
0,6825	13,9	-5,4
0,683	20,7	-3,7
0,6835	26,9	-1,9
0,684	32,6	-0,6
0,6845	37,9	-0,3
0,685	42,2	-1,4
0,6855	44,8	-3,5
0,686	45,7	-5,8
0,6865	44,7	-7,4
0,687	41,1	-7,4
0,6875	34,3	-6,0
0,688	25,3	-4,0
0,6885	16,9	-2,2
0,689	12,1	-0,9
0,6895	11,5	-0,3
0,69	13,5	-0,1
0,6905	15,8	0,0
0,691	17,3	0,2
0,6915	18,9	0,3
0,692	22,2	-0,0
0,6925	28,1	-0,3
0,693	35,0	-0,2
0,6935	40,1	0,2
0,694	41,5	0,5
0,6945	39,6	0,7
0,695	36,7	0,8
0,6955	35,3	0,8
0,696	36,9	0,5
0,6965	40,6	-0,5
0,697	43,5	-2,2
0,6975	42,1	-4,4
0,698	35,2	-6,7
0,6985	25,5	-8,7
0,699	16,6	-10,3
0,6995	11,0	-11,7
0,7	8,7	-13,1
0,7005	8,1	-14,5
0,701	8,2	-15,8
0,7015	8,4	-17,1
0,702	8,8	-18,1
0,7025	9,6	-18,6
0,703	10,7	-18,3
0,7035	11,9	-17,3
0,704	12,5	-15,7
0,7045	12,1	-13,8
0,705	11,0	-11,7
0,7055	9,8	-9,8
0,706	8,8	-8,1
0,7065	8,3	-6,9
0,707	7,9	-6,3
0,7075	7,0	-6,0
0,708	4,8	-6,2
0,7085	0,8	-6,4
0,709	-4,8	-6,6
0,7095	-11,1	-6,5
0,71	-17,5	-6,2
0,7105	-23,9	-5,3
0,711	-30,5	-3,8
0,7115	-36,3	-1,6
0,712	-39,7	1,0
0,7125	-39,1	3,1
0,713	-34,3	4,1
0,7135	-25,8	4,1
0,714	-14,2	3,3
0,7145	-0,5	2,3
0,715	14,0	1,4
0,7155	28,3	0,8
0,716	41,7	0,8
0,7165	53,8	1,3
0,717	64,6	2,2
0,7175	74,0	2,6
0,718	81,3	2,5
0,7185	86,1	1,8
0,719	87,9	0,9
0,7195	86,6	0,3
0,72	82,0	-0,1
0,7205	74,7	-0,1
0,721	66,1	0,2
0,7215	59,1	0,2
0,722	55,2	-1,1
0,7225	53,3	-4,2
0,723	50,6	-8,3
0,7235	45,7	-12,1
0,724	39,1	-14,5
0,7245	32,5	-14,9
0,725	27,3	-13,8
0,7255	24,1	-11,8
0,726	22,7	-9,6
0,7265	22,4	-7,7
0,727	22,6	-6,5
0,7275	22,5	-6,3
0,728	21,8	-7,0
0,7285	20,5	-8,1
0,729	18,8	-9,4
0,7295	14,8	-10,6
0,73	6,9	-11,6
0,7305	-4,7	-12,5
0,731	-17,3	-13,2
0,7315	-27,8	-13,9
0,732	-34,4	-14,4
0,7325	-36,7	-14,5
0,733	-35,0	-14,0
0,7335	-30,2	-12,8
0,734	-23,3	-11,1
0,7345	-15,5	-9,1
0,735	-7,5	-7,1
0,7355	0,5	-5,2
0,736	8,0	-3,6
0,7365	14,2	-2,6
0,737	18,3	-2,5
0,7375	19,7	-2,8
0,738	18,2	-3,3
0,7385	14,3	-3,7
0,739	9,2	-3,9
0,7395	5,2	-4,3
0,74	3,8	-5,1
0,7405	5,6	-6,2
0,741	9,8	-7,2
0,7415	15,2	-7,6
0,742	20,1	-7,2
0,7425	22,9	-6,0
0,743	22,8	-4,3
0,7435	20,4	-2,6
0,744	16,8	-1,6
0,7445	13,6	-1,7
0,745	12,7	-2,8
0,7455	15,3	-4,4
0,746	21,1	-5,6
0,7465	28,6	-5,6
0,747	35,2	-4,5
0,7475	39,0	-2,9
0,748	39,7	-1,3
0,7485	37,7	-0,2
0,749	34,2	0,6
0,7495	30,0	1,1
0,75	25,0	1,4
0,7505	18,2	1,6
0,751	9,2	1,5
0,7515	-0,7	0,8
0,752	-9,5	-0,6
0,7525	-15,8	-2,6
0,753	-19,9	-5,3
0,7535	-22,1	-8,7
0,754	-22,0	-12,4
0,7545	-19,2	-15,6
0,755	-13,6	-17,5
0,7555	-6,5	-17,7
0,756	0,5	-16,6
0,7565	6,5	-15,2
0,757	11,8	-14,1
0,7575	16,3	-13,4
0,758	20,1	-12,8
0,7585	22,9	-12,0
0,759	25,4	-10,8
0,7595	28,6	-9,2
0,76	33,7	-7,4
0,7605	41,1	-5,9
0,761	49,0	-5,0
0,7615	54,7	-4,8
0,762	55,8	-5,4
0,7625	52,0	-6,5
0,763	45,6	-7,8
0,7635	39,1	-9,0
0,764	34,5	-9,9
0,7645	32,2	-10,2
0,765	31,2	-9,9
0,7655	30,3	-9,4
0,766	27,9	-8,9
0,7665	23,5	-9,0
0,767	17,0	-9,5
0,7675	9,2	-10,4
0,768	1,6	-11,7
0,7685	-4,9	-13,0
0,769	-10,3	-14,1
0,7695	-14,4	-14,5
0,77	-17,3	-14,5
0,7705	-18,6	-14,4
0,771	-18,4	-14,2
0,7715	-16,6	-14,0
0,772	-13,6	-13,8
0,7725	-9,4	-13,6
0,773	-3,8	-13,4
0,7735	3,6	-13,0
0,774	12,5	-12,0
0,7745	20,6	-10,5
0,775	25,3	-9,0
0,7755	25,2	-7,9
0,776	20,9	-7,3
0,7765	14,6	-6,7
0,777	8,5	-5,8
0,7775	4,1	-4,4
0,778	2,0	-2,7
0,7785	2,2	-1,3
0,779	4,5	-0,4
0,7795	8,6	-0,1
0,78	13,5	-0,3
0,7805	18,2	-0,7
0,781	21,8	-1,1
0,7815	24,1	-1,3
0,782	25,5	-1,0
0,7825	26,2	-0,0
0,783	26,0	1,3
0,7835	25,1	2,7
0,784	23,8	3,8
0,7845	22,1	4,5
0,785	19,0	4,8
0,7855	12,7	4,6
0,786	1,7	4,0
0,7865	-12,8	3,2
0,787	-27,1	2,3
0,7875	-37,8	1,4
0,788	-43,2	0,8
0,7885	-43,1	0,9
0,789	-38,2	1,7
0,7895	-29,5	2,5
0,79	-18,1	3,3
0,7905	-5,6	3,6
0,791	6,4	3,3
0,7915	16,7	2,3
0,792	24,8	1,3
0,7925	31,0	0,6
0,793	36,0	0,6
0,7935	40,2	1,0
0,794	44,3	1,4
0,7945	47,8	1,7
0,795	49,1	1,5
0,7955	46,8	0,4
0,796	41,0	-1,6
0,7965	34,3	-3,9
0,797	29,3	-6,2
0,7975	26,8	-8,3
0,798	26,5	-10,6
0,7985	27,2	-13,1
0,799	28,2	-15,4
0,7995	28,6	-16,9
0,8	28,0	-17,1
0,8005	26,0	-16,3
0,801	23,1	-15,3
0,8015	20,0	-14,6
0,802	17,8	-13,9
0,8025	17,6	-12,8
0,803	19,7	-11,2
0,8035	23,3	-9,5
0,804	26,1	-8,2
0,8045	24,3	-7,9
0,805	16,0	-8,7
0,8055	2,5	-9,7
0,806	-11,9	-10,0
0,8065	-22,5	-9,3
0,807	-27,0	-7,7
0,8075	-25,6	-5,7
0,808	-20,1	-3,6
0,8085	-13,0	-1,8
0,809	-6,0	-0,3
0,8095	0,3	0,6
0,81	5,8	1,1
0,8105	10,0	0,8
0,811	12,2	-0,4
0,8115	12,3	-2,7
0,812	11,3	-5,7
0,8125	10,6	-8,7
0,813	10,8	-10,7
0,8135	12,3	-11,3
0,814	14,6	-10,5
0,8145	16,2	-8,2
0,815	15,8	-4,9
0,8155	13,9	-1,5
0,816	12,5	1,0
0,8165	12,7	2,2
0,817	13,8	2,2
0,8175	14,5	1,7
0,818	14,1	1,3
0,8185	11,9	1,4
0,819	7,3	1,9
0,8195	0,1	2,8
0,82	-7,8	3,8
0,8205	-14,1	5,3
0,821	-16,9	7,1
0,8215	-15,5	9,2
0,822	-9,8	10,9
0,8225	-1,3	11,7
0,823	8,2	11,4
0,8235	16,8	10,0
0,824	24,1	8,2
0,8245	30,4	6,7
0,825	36,0	5,7
0,8255	40,1	5,0
0,826	42,1	3,9
0,8265	42,4	2,2
0,827	42,4	-0,2
0,8275	43,3	-2,7
0,828	45,0	-4,9
0,8285	46,1	-7,1
0,829	45,3	-9,5
0,8295	42,7	-12,1
0,83	39,8	-14,8
0,8305	36,6	-16,7
0,831	31,6	-17,7
0,8315	24,3	-17,8
0,832	16,0	-17,1
0,8325	9,4	-15,9
0,833	6,5	-14,3
0,8335	7,7	-12,3
0,834	12,2	-9,9
0,8345	17,9	-7,6
0,835	22,6	-5,8
0,8355	25,0	-4,6
0,836	25,0	-3,7
0,8365	23,1	-2,6
0,837	20,0	-1,3
0,8375	16,7	0,1
0,838	13,8	1,6
0,8385	12,3	3,4
0,839	12,3	5,7
0,8395	13,8	7,7
0,84	16,5	9,0
0,8405	20,1	8,9
0,841	24,0	7,6
0,8415	27,8	5,6
0,842	30,8	3,8
0,8425	32,6	2,5
0,843	32,8	1,6
0,8435	31,6	0,8
0,844	29,5	-0,1
0,8445	26,9	-1,1
0,845	24,2	-2,3
0,8455	21,4	-3,8
0,846	18,7	-5,7
0,8465	16,8	-8,0
0,847	16,4	-10,1
0,8475	17,8	-11,6
0,848	20,1	-12,0
0,8485	22,4	-11,3
0,849	23,9	-9,9
0,8495	24,4	-8,6
0,85	24,1	-7,9
0,8505	23,4	-7,9
0,851	23,1	-8,4
0,8515	23,1	-8,8
0,852	23,1	-8,8
0,8525	22,6	-7,9
0,853	21,2	-6,4
0,8535	18,5	-4,6
0,854	13,3	-3,1
0,8545	4,1	-2,4
0,855	-9,2	-2,7
0,8555	-23,8	-3,6
0,856	-36,5	-4,4
0,8565	-44,3	-4,5
0,857	-46,1	-3,8
0,8575	-42,5	-2,8
0,858	-35,3	-1,9
0,8585	-26,8	-1,4
0,859	-18,7	-1,4
0,8595	-11,3	-1,3
0,86	-4,8	-1,1
0,8605	0,7	-0,8
0,861	4,6	-0,3
0,8615	6,8	0,2
0,862	8,3	1,0
0,8625	10,2	1,8
0,863	12,8	2,6
0,8635	16,1	3,0
0,864	19,8	3,0
0,8645	24,2	2,6
0,865	28,8	2,1
0,8655	32,3	1,4
0,866	34,3	0,6
0,8665	35,3	-0,9
0,867	36,7	-3,0
0,8675	38,9	-5,5
0,868	40,9	-7,8
0,8685	41,5	-9,3
0,869	40,2	-9,9
0,8695	37,4	-9,7
0,87	33,9	-9,0
0,8705	30,6	-7,9
0,871	27,9	-6,5
0,8715	25,8	-4,8
0,872	23,9	-2,9
0,8725	22,2	-1,3
0,873	21,0	-0,4
0,8735	19,9	-0,1
0,874	18,3	-0,3
0,8745	15,8	-0,8
0,875	12,4	-1,5
0,8755	8,8	-2,4
0,876	5,0	-3,0
0,8765	0,8	-2,9
0,877	-4,1	-2,3
0,8775	-9,0	-0,9
0,878	-12,4	1,2
0,8785	-13,0	3,9
0,879	-10,8	6,9
0,8795	-6,5	9,3
0,88	-1,2	10,3
0,8805	3,7	9,6
0,881	7,2	7,5
0,8815	9,2	4,7
0,882	10,2	1,8
0,8825	10,9	-0,8
0,883	12,0	-2,3
0,8835	13,7	-2,6
0,884	16,2	-1,8
0,8845	19,2	-0,7
0,885	21,8	0,2
0,8855	23,3	0,4
0,886	23,3	0,1
0,8865	21,6	-0,1
0,887	18,4	-0,1
0,8875	15,2	0,1
0,888	13,9	0,3
0,8885	15,8	0,7
0,889	20,8	1,3
0,8895	27,3	1,9
0,89	32,7	2,4
0,8905	34,9	2,3
0,891	33,1	1,8
0,8915	28,9	1,1
0,892	24,6	0,9
0,8925	21,3	1,5
0,893	17,5	2,8
0,8935	9,3	3,7
0,894	-7,7	3,5
0,8945	-34,0	1,7
0,895	-65,5	-1,5
0,8955	-95,2	-4,9
0,896	-117,0	-7,1
0,8965	-128,3	-7,5
0,897	-128,4	-6,5
0,8975	-118,2	-5,3
0,898	-99,2	-4,1
0,8985	-73,4	-2,4
0,899	-43,5	0,3
0,8995	-11,8	3,7
0,9	20,0	7,2
0,9005	49,8	10,1
0,901	75,4	12,0
0,9015	94,4	12,3
0,902	105,2	10,8
0,9025	107,8	8,2
0,903	104,1	5,5
0,9035	96,5	3,6
0,904	87,5	2,5
0,9045	78,3	1,7
0,905	68,1	0,4
0,9055	56,0	-1,8
0,906	42,5	-4,8
0,9065	30,5	-8,4
0,907	23,4	-12,0
0,9075	22,0	-15,1
0,908	24,4	-17,0
0,9085	27,5	-17,3
0,909	29,1	-15,9
0,9095	28,8	-13,0
0,91	27,4	-9,0
0,9105	25,7	-4,4
0,911	24,3	-0,2
0,9115	23,4	2,9
0,912	22,9	4,7
0,9125	22,1	5,3
0,913	20,1	4,9
0,9135	16,4	3,7
0,914	11,7	1,9
0,9145	8,1	0,6
0,915	7,5	1,0
0,9155	10,2	2,9
0,916	13,9	5,4
0,9165	15,7	7,6
0,917	14,2	8,7
0,9175	10,5	8,7
0,918	7,6	7,9
0,9185	8,2	6,6
0,919	12,6	5,1
0,9195	18,4	3,2
0,92	23,0	1,0
0,9205	25,1	-1,1
0,921	25,6	-2,6
0,9215	26,2	-2,9
0,922	27,5	-2,1
0,9225	28,9	-0,5
0,923	28,9	0,9
0,9235	27,3	1,3
0,924	24,8	0,9
0,9245	22,1	0,0
0,925	18,6	-0,7
0,9255	13,2	-1,2
0,926	5,5	-1,3
0,9265	-3,0	-1,2
0,927	-10,2	-0,6
0,9275	-14,9	0,1
0,928	-16,8	0,7
0,9285	-16,4	0,8
0,929	-14,5	0,5
0,9295	-11,8	-0,5
0,93	-8,5	-2,3
0,9305	-4,4	-4,6
0,931	1,1	-6,5
0,9315	7,8	-7,3
0,932	15,1	-6,3
0,9325	22,1	-3,8
0,933	28,6	-0,6
0,9335	34,1	2,4
0,934	38,5	4,8
0,9345	41,5	6,0
0,935	43,3	6,4
0,9355	44,3	6,2
0,936	44,8	6,0
0,9365	44,8	6,2
0,937	44,1	6,4
0,9375	42,5	6,2
0,938	40,3	5,0
0,9385	37,5	3,3
0,939	33,8	1,2
0,9395	28,7	-1,1
0,94	22,4	-3,7
0,9405	16,2	-6,4
0,941	11,6	-8,7
0,9415	10,0	-10,6
0,942	11,1	-12,3
0,9425	13,5	-14,0
0,943	16,0	-15,2
0,9435	17,8	-15,5
0,944	18,9	-14,8
0,9445	19,5	-13,2
0,945	19,9	-10,9
0,9455	20,5	-8,3
0,946	21,7	-5,7
0,9465	22,9	-3,3
0,947	22,9	-1,5
0,9475	20,9	-0,3
0,948	17,0	0,1
0,9485	12,3	0,0
0,949	8,2	-0,4
0,9495	5,2	-1,1
0,95	3,7	-1,6
0,9505	4,0	-1,9
0,951	6,7	-1,9
0,9515	11,8	-1,4
0,952	18,4	-0,7
0,9525	25,2	0,4
0,953	30,7	1,1
0,9535	34,0	1,0
0,954	34,8	-0,2
0,9545	33,4	-2,3
0,955	30,8	-4,6
0,9555	28,0	-6,3
0,956	25,8	-7,1
0,9565	24,3	-7,0
0,957	23,5	-6,4
0,9575	22,8	-5,7
0,958	22,2	-5,0
0,9585	21,4	-4,8
0,959	21,0	-5,1
0,9595	21,6	-5,6
0,96	23,1	-5,8
0,9605	25,3	-5,8
0,961	27,1	-5,2
0,9615	27,8	-4,5
0,962	27,3	-4,0
0,9625	26,0	-3,8
0,963	24,2	-3,7
0,9635	21,1	-3,6
0,964	16,0	-2,9
0,9645	9,7	-1,7
0,965	4,0	-0,1
0,9655	0,6	1,4
0,966	-0,2	2,3
0,9665	0,6	2,5
0,967	2,3	2,3
0,9675	4,8	1,9
0,968	8,2	1,8
0,9685	12,5	2,1
0,969	17,1	2,8
0,9695	21,3	3,8
0,97	24,3	4,7
0,9705	25,6	5,3
0,971	25,6	5,5
0,9715	24,6	5,2
0,972	22,9	4,3
0,9725	21,0	3,0
0,973	19,9	1,4
0,9735	20,2	-0,0
0,974	21,3	-1,4
0,9745	21,5	-2,8
0,975	20,0	-4,2
0,9755	17,1	-5,2
0,976	13,4	-5,8
0,9765	10,7	-5,9
0,977	10,8	-5,7
0,9775	14,8	-5,3
0,978	21,7	-5,4
0,9785	27,5	-6,3
0,979	28,2	-7,8
0,9795	22,6	-9,2
0,98	12,5	-9,6
0,9805	0,8	-8,9
0,981	-10,4	-7,4
0,9815	-20,3	-5,9
0,982	-28,5	-5,2
0,9825	-35,2	-5,4
0,983	-40,5	-6,4
0,9835	-43,7	-7,8
0,984	-44,1	-8,9
0,9845	-40,9	-9,3
0,985	-34,4	-8,9
0,9855	-26,3	-7,9
0,986	-18,7	-7,1
0,9865	-13,0	-6,8
0,987	-9,3	-6,9
0,9875	-6,3	-6,7
0,988	-2,1	-5,7
0,9885	5,3	-3,5
0,989	15,8	-0,5
0,9895	27,1	2,7
0,99	36,2	5,0
0,9905	40,7	5,7
0,991	41,5	4,6
0,9915	40,8	2,1
0,992	41,5	-0,9
0,9925	43,9	-3,6
0,993	46,4	-5,4
0,9935	47,3	-6,5
0,994	46,2	-7,3
0,9945	43,6	-8,1
0,995	39,7	-9,1
0,9955	34,5	-9,8
0,996	29,1	-10,1
0,9965	25,8	-9,6
0,997	25,8	-8,4
0,9975	28,7	-7,1
0,998	32,3	-6,0
0,9985	34,8	-5,4
0,999	34,4	-5,6
0,9995	29,9	-6,0
1	21,3	-6,6
1,0005	10,5	-7,0
1,001	0,3	-7,7
1,0015	-7,6	-8,8
1,002	-12,4	-10,3
1,0025	-14,3	-11,5
1,003	-14,0	-12,2
1,0035	-12,3	-12,5
1,004	-9,0	-12,4
1,0045	-3,5	-11,8
1,005	5,3	-10,6
1,0055	16,8	-8,9
1,006	29,5	-6,9
1,0065	40,8	-5,0
1,007	49,4	-3,8
1,0075	54,5	-3,4
1,008	56,1	-3,4
1,0085	54,8	-3,4
1,009	51,0	-2,7
1,0095	45,0	-1,2
1,01	38,1	0,6
1,0105	32,8	2,0
1,011	30,2	2,5
1,0115	28,8	2,1
1,012	25,8	1,3
1,0125	20,0	0,2
1,013	11,4	-1,2
1,0135	0,9	-2,8
1,014	-10,2	-4,9
1,0145	-19,9	-7,9
1,015	-26,3	-11,9
1,0155	-28,5	-16,3
1,016	-26,3	-19,8
1,0165	-19,9	-21,7
1,017	-11,0	-21,5
1,0175	-1,0	-19,9
1,018	8,3	-17,8
1,0185	16,4	-16,0
1,019	23,3	-14,7
1,0195	29,3	-14,3
1,02	34,3	-14,7
1,0205	38,1	-15,2
1,021	40,8	-15,0
1,0215	42,6	-13,7
1,022	43,1	-11,3
1,0225	42,3	-8,5
1,023	40,9	-5,8
1,0235	39,7	-3,8
1,024	38,2	-2,3
1,0245	35,7	-1,3
1,025	32,0	-0,8
1,0255	27,9	-0,9
1,026	24,3	-1,3
1,0265	21,3	-1,3
1,027	19,4	-1,0
1,0275	18,8	-0,3
1,028	19,2	0,5
1,0285	19,9	0,7
1,029	20,0	-0,0
1,0295	19,5	-1,8
1,03	18,7	-4,1
1,0305	18,2	-6,8
1,031	18,2	-9,5
1,0315	18,6	-11,8
1,032	18,9	-13,3
1,0325	18,5	-13,5
1,033	17,5	-12,5
1,0335	16,3	-10,5
1,034	16,0	-8,6
1,0345	16,5	-7,4
1,035	17,2	-7,6
1,0355	17,0	-9,1
1,036	15,3	-11,6
1,0365	11,7	-14,7
1,037	6,8	-17,7
1,0375	1,8	-19,9
1,038	-2,0	-20,9
1,0385	-3,5	-20,5
1,039	-2,5	-19,1
1,0395	0,4	-17,3
1,04	4,6	-15,5
1,0405	9,4	-14,3
1,041	14,2	-13,6
1,0415	18,1	-13,1
1,042	19,9	-13,0
1,0425	19,1	-13,3
1,043	16,2	-13,7
1,0435	12,5	-13,6
1,044	9,2	-12,9
1,0445	6,1	-11,8
1,045	2,5	-10,8
1,0455	-1,9	-9,7
1,046	-6,3	-8,4
1,0465	-9,3	-6,9
1,047	-9,4	-5,4
1,0475	-6,3	-3,9
1,048	0,2	-2,8
1,0485	8,4	-1,8
1,049	16,6	-1,1
1,0495	23,3	-0,8
1,05	28,5	-0,8
1,0505	33,3	-1,0
1,051	38,7	-1,2
1,0515	45,1	-1,0
1,052	51,7	-0,5
1,0525	57,4	0,5
1,053	60,8	1,8
1,0535	61,6	3,2
1,054	60,2	4,3
1,0545	57,4	4,7
1,055	54,3	3,3
1,0555	51,6	-0,5
1,056	49,5	-6,5
1,0565	47,4	-13,5
1,057	44,2	-20,0
1,0575	38,9	-24,6
1,058	32,2	-26,6
1,0585	25,7	-26,4
1,059	20,5	-24,4
1,0595	16,9	-21,5
1,06	14,2	-18,4
1,0605	12,2	-15,7
1,061	11,1	-13,5
1,0615	11,0	-12,2
1,062	11,3	-11,5
1,0625	11,0	-11,3
1,063	9,3	-11,1
1,0635	6,4	-10,5
1,064	3,2	-9,4
1,0645	-0,1	-8,2
1,065	-4,1	-7,7
1,0655	-9,5	-8,7
1,066	-17,2	-11,0
1,0665	-27,4	-13,7
1,067	-39,3	-15,9
1,0675	-50,6	-17,3
1,068	-58,7	-18,0
1,0685	-61,8	-18,3
1,069	-59,2	-18,3
1,0695	-51,6	-17,9
1,07	-41,3	-17,0
1,0705	-30,7	-15,7
1,071	-21,4	-13,9
1,0715	-13,4	-11,8
1,072	-6,6	-9,3
1,0725	-1,0	-6,4
1,073	3,4	-3,7
1,0735	6,8	-1,3
1,074	9,8	0,7
1,0745	12,6	2,6
1,075	15,4	4,5
1,0755	19,3	6,5
1,076	25,6	8,3
1,0765	34,9	9,2
1,077	45,4	9,0
1,0775	53,4	8,0
1,078	56,2	6,6
1,0785	54,2	5,2
1,079	50,0	4,1
1,0795	46,2	3,2
1,08	43,7	2,4
1,0805	42,5	2,0
1,081	41,5	1,9
1,0815	39,7	1,8
1,082	36,9	1,1
1,0825	34,3	-0,4
1,083	34,1	-2,8
1,0835	37,1	-6,1
1,084	41,8	-10,3
1,0845	45,0	-15,5
1,085	44,8	-21,0
1,0855	41,3	-25,7
1,086	35,9	-28,4
1,0865	29,7	-29,4
1,087	23,5	-28,8
1,0875	18,3	-26,9
1,088	15,1	-24,2
1,0885	13,8	-21,0
1,089	14,0	-17,7
1,0895	15,2	-14,7
1,09	17,1	-12,3
1,0905	19,1	-10,3
1,091	20,7	-8,6
1,0915	21,9	-7,2
1,092	22,3	-6,1
1,0925	21,2	-4,9
1,093	17,9	-3,4
1,0935	12,8	-1,7
1,094	7,0	-0,2
1,0945	1,7	0,8
1,095	-1,9	1,2
1,0955	-3,2	1,2
1,096	-2,3	0,8
1,0965	0,1	0,0
1,097	3,6	-0,8
1,0975	7,8	-1,2
1,098	12,4	-1,1
1,0985	16,5	-0,8
1,099	19,4	-0,7
1,0995	20,5	-1,1
1,1	19,6	-2,1
1,1005	17,2	-3,6
1,101	14,3	-5,4
1,1015	11,7	-7,4
1,102	9,9	-9,1
1,1025	9,0	-10,4
1,103	8,0	-11,4
1,1035	5,7	-12,1
1,104	0,9	-12,3
1,1045	-7,0	-12,5
1,105	-17,1	-12,4
1,1055	-27,6	-12,1
1,106	-35,9	-11,3
1,1065	-40,1	-10,2
1,107	-39,4	-9,2
1,1075	-34,4	-8,2
1,108	-26,3	-7,3
1,1085	-16,3	-6,3
1,109	-5,4	-4,9
1,1095	4,9	-3,3
1,11	12,9	-2,0
1,1105	18,0	-1,4
1,111	20,5	-1,8
1,1115	21,8	-2,8
1,112	22,6	-3,9
1,1125	23,4	-4,7
1,113	24,0	-4,9
1,1135	23,1	-4,5
1,114	19,1	-3,2
1,1145	11,3	-1,4
1,115	1,8	0,6
1,1155	-5,0	2,0
1,116	-6,4	2,8
1,1165	-3,4	3,0
1,117	1,0	3,0
1,1175	4,4	2,8
1,118	6,4	2,2
1,1185	8,0	0,8
1,119	10,0	-1,3
1,1195	12,4	-3,8
1,12	14,5	-6,2
1,1205	16,0	-8,0
1,121	17,7	-8,8
1,1215	20,2	-8,6
1,122	23,6	-7,3
1,1225	26,8	-5,1
1,123	28,3	-2,6
1,1235	27,8	-0,6
1,124	26,2	0,6
1,1245	25,3	1,0
1,125	26,0	0,7
1,1255	27,7	-0,7
1,126	28,5	-3,3
1,1265	28,3	-6,8
1,127	28,6	-10,1
1,1275	31,1	-12,1
1,128	36,6	-12,2
1,1285	43,4	-11,0
1,129	48,5	-9,8
1,1295	49,0	-10,0
1,13	43,8	-12,2
1,1305	33,8	-15,7
1,131	21,8	-18,9
1,1315	10,6	-20,6
1,132	2,0	-20,4
1,1325	-3,5	-18,8
1,133	-7,1	-16,9
1,1335	-9,8	-15,4
1,134	-12,0	-15,1
1,1345	-13,8	-16,0
1,135	-14,9	-17,8
1,1355	-14,9	-19,6
1,136	-13,6	-20,8
1,1365	-11,1	-21,0
1,137	-8,3	-20,3
1,1375	-5,9	-19,2
1,138	-4,7	-17,9
1,1385	-5,5	-16,7
1,139	-9,1	-15,7
1,1395	-15,1	-14,9
1,14	-22,6	-14,3
1,1405	-30,5	-13,9
1,141	-38,4	-14,1
1,1415	-46,1	-14,7
1,142	-53,8	-15,3
1,1425	-61,8	-15,5
1,143	-69,5	-15,2
1,1435	-76,1	-14,4
1,144	-79,7	-13,2
1,1445	-79,1	-11,8
1,145	-73,3	-10,2
1,1455	-62,7	-8,9
1,146	-48,4	-7,8
1,1465	-31,8	-6,5
1,147	-13,8	-4,9
1,1475	4,7	-2,8
1,148	22,4	-0,3
1,1485	38,7	2,6
1,149	52,6	5,5
1,1495	62,5	8,0
1,15	67,4	9,6
1,1505	67,9	10,1
1,151	66,2	10,3
1,1515	65,1	10,8
1,152	66,9	12,1
1,1525	72,3	13,2
1,153	79,2	12,9
1,1535	84,2	10,0
1,154	84,6	4,4
1,1545	80,3	-2,7
1,155	73,3	-9,3
1,1555	65,7	-13,7
1,156	58,6	-15,6
1,1565	52,6	-15,8
1,157	47,6	-15,8
1,1575	43,4	-16,5
1,158	39,1	-18,5
1,1585	33,4	-21,4
1,159	25,9	-24,5
1,1595	18,2	-27,1
1,16	12,6	-28,8
1,1605	10,7	-29,1
1,161	12,2	-27,9
1,1615	15,7	-25,3
1,162	19,8	-22,0
1,1625	22,5	-18,8
1,163	22,1	-16,1
1,1635	17,9	-14,1
1,164	11,2	-12,8
1,1645	4,0	-12,0
1,165	-2,1	-11,6
1,1655	-6,3	-11,4
1,166	-8,8	-11,4
1,1665	-9,7	-11,8
1,167	-9,3	-12,7
1,1675	-7,7	-14,1
1,168	-5,2	-15,8
1,1685	-2,0	-17,4
1,169	1,3	-18,4
1,1695	4,1	-18,7
1,17	6,1	-18,6
1,1705	7,1	-18,4
1,171	7,3	-18,3
1,1715	7,1	-17,9
1,172	7,6	-16,9
1,1725	9,7	-14,8
1,173	13,2	-12,2
1,1735	16,6	-9,8
1,174	18,3	-8,3
1,1745	18,9	-7,8
1,175	20,4	-7,9
1,1755	24,6	-8,0
1,176	30,4	-8,1
1,1765	35,3	-8,3
1,177	36,2	-8,8
1,1775	31,3	-9,7
1,178	21,1	-10,4
1,1785	8,3	-10,4
1,179	-4,4	-9,8
1,1795	-15,2	-9,0
1,18	-23,5	-8,7
1,1805	-29,0	-8,9
1,181	-31,6	-9,5
1,1815	-33,0	-10,2
1,182	-35,2	-10,7
1,1825	-39,1	-11,0
1,183	-43,8	-11,1
1,1835	-47,1	-10,8
1,184	-47,0	-10,4
1,1845	-42,6	-9,7
1,185	-34,1	-8,9
1,1855	-22,4	-8,1
1,186	-8,2	-7,3
1,1865	7,3	-6,6
1,187	22,3	-6,0
1,1875	35,0	-4,9
1,188	44,7	-2,8
1,1885	52,5	0,0
1,189	59,8	2,9
1,1895	66,7	4,5
1,19	71,7	4,5
1,1905	72,9	3,2
1,191	69,8	1,6
1,1915	63,2	0,6
1,192	53,8	0,2
1,1925	43,3	0,2
1,193	34,4	0,2
1,1935	29,6	-0,3
1,194	29,0	-1,4
1,1945	30,5	-3,2
1,195	31,4	-5,6
1,1955	30,3	-8,4
1,196	27,6	-11,2
1,1965	24,9	-13,1
1,197	22,8	-13,7
1,1975	20,4	-13,2
1,198	16,7	-12,1
1,1985	11,6	-11,1
1,199	6,4	-10,6
1,1995	1,7	-10,6
1,2	-2,4	-11,0
1,2005	-6,2	-11,8
1,201	-9,0	-12,9
1,2015	-10,3	-13,8
1,202	-9,4	-14,2
1,2025	-6,5	-13,7
1,203	-3,0	-12,6
1,2035	-0,6	-11,4
1,204	-0,8	-10,8
1,2045	-3,1	-10,6
1,205	-5,3	-10,6
1,2055	-4,8	-10,3
1,206	-0,8	-9,3
1,2065	5,8	-8,1
1,207	13,2	-6,9
1,2075	19,7	-6,0
1,208	24,8	-5,2
1,2085	28,9	-4,1
1,209	32,3	-3,2
1,2095	34,3	-3,2
1,21	34,3	-4,4
1,2105	31,8	-6,6
1,211	27,7	-9,2
1,2115	23,2	-11,5
1,212	19,6	-13,1
1,2125	17,8	-13,8
1,213	17,9	-13,7
1,2135	18,7	-12,8
1,214	18,8	-11,3
1,2145	17,3	-9,7
1,215	13,7	-8,3
1,2155	8,7	-7,2
1,216	3,5	-6,6
1,2165	-0,6	-7,1
1,217	-2,5	-8,8
1,2175	-2,0	-11,3
1,218	0,6	-13,4
1,2185	4,7	-14,3
1,219	8,8	-13,7
1,2195	11,7	-12,1
1,22	12,7	-9,9
1,2205	11,5	-7,5
1,221	8,7	-5,2
1,2215	5,7	-3,2
1,222	3,8	-1,9
1,2225	3,9	-0,8
1,223	5,8	0,3
1,2235	8,8	1,9
1,224	12,2	4,1
1,2245	15,4	6,3
1,225	18,1	8,3
1,2255	20,3	9,8
1,226	22,1	10,8
1,2265	23,7	11,1
1,227	25,1	11,1
1,2275	26,1	10,7
1,228	26,6	10,1
1,2285	27,4	9,1
1,229	29,9	8,1
1,2295	34,8	7,5
1,23	41,8	7,3
1,2305	48,9	6,7
1,231	53,8	5,0
1,2315	54,5	1,6
1,232	49,7	-3,3
1,2325	39,3	-9,5
1,233	23,6	-16,0
1,2335	3,5	-22,1
1,234	-18,2	-26,8
1,2345	-37,5	-29,6
1,235	-50,6	-30,5
1,2355	-55,5	-29,3
1,236	-51,8	-26,4
1,2365	-41,1	-22,0
1,237	-26,4	-17,0
1,2375	-11,7	-12,7
1,238	0,8	-10,1
1,2385	10,7	-9,5
1,239	18,7	-10,2
1,2395	25,3	-11,2
1,24	30,9	-11,6
1,2405	35,6	-11,2
1,241	39,4	-9,9
1,2415	42,5	-7,8
1,242	44,8	-5,2
1,2425	46,2	-2,7
1,243	46,3	-0,7
1,2435	45,1	0,3
1,244	43,1	0,3
1,2445	40,4	-0,3
1,245	37,4	-1,1
1,2455	33,3	-2,3
1,246	27,6	-3,6
1,2465	20,2	-5,0
1,247	12,5	-6,5
1,2475	5,8	-7,8
1,248	0,7	-8,9
1,2485	-2,8	-9,4
1,249	-4,8	-9,3
1,2495	-6,0	-8,1
1,25	-7,0	-6,3
1,2505	-7,7	-4,3
1,251	-7,0	-2,7
1,2515	-4,0	-2,0
1,252	0,9	-2,3
1,2525	6,1	-3,3
1,253	9,9	-4,9
1,2535	11,6	-6,5
1,254	12,1	-7,5
1,2545	13,8	-7,3
1,255	18,7	-6,3
1,2555	27,0	-4,6
1,256	36,7	-2,9
1,2565	44,9	-1,4
1,257	49,9	0,1
1,2575	51,1	1,8
1,258	48,8	3,2
1,2585	43,4	3,7
1,259	36,4	3,0
1,2595	29,4	1,6
1,26	23,8	0,3
1,2605	19,9	-0,3
1,261	18,3	0,3
1,2615	18,9	1,8
1,262	20,4	3,8
1,2625	20,6	5,6
1,263	18,3	6,8
1,2635	13,9	6,9
1,264	9,1	6,1
1,2645	5,4	4,6
1,265	4,2	2,9
1,2655	6,2	1,8
1,266	11,5	1,3
1,2665	18,8	0,8
1,267	25,3	-0,3
1,2675	26,7	-2,8
1,268	21,3	-7,0
1,2685	10,7	-12,1
1,269	-0,6	-16,8
1,2695	-8,5	-19,8
1,27	-11,3	-20,5
1,2705	-9,5	-19,6
1,271	-5,0	-18,0
1,2715	0,4	-16,6
1,272	6,1	-15,3
1,2725	12,3	-14,0
1,273	19,6	-12,4
1,2735	27,6	-10,7
1,274	34,9	-9,4
1,2745	39,4	-9,0
1,275	39,7	-9,3
1,2755	35,9	-9,8
1,276	29,9	-9,6
1,2765	23,4	-8,5
1,277	17,2	-6,9
1,2775	11,1	-5,0
1,278	5,6	-3,4
1,2785	2,7	-2,8
1,279	4,7	-3,1
1,2795	11,3	-3,9
1,28	19,1	-4,6
1,2805	23,2	-4,8
1,281	21,2	-4,8
1,2815	13,8	-4,8
1,282	4,8	-4,8
1,2825	-2,4	-4,8
1,283	-6,5	-5,1
1,2835	-8,2	-5,9
1,284	-9,1	-7,6
1,2845	-10,2	-9,8
1,285	-11,1	-12,2
1,2855	-11,1	-14,3
1,286	-9,3	-16,1
1,2865	-5,0	-17,7
1,287	1,8	-18,7
1,2875	9,8	-19,0
1,288	17,2	-18,4
1,2885	22,4	-17,2
1,289	25,6	-15,7
1,2895	27,6	-14,0
1,29	29,3	-12,1
1,2905	31,8	-10,3
1,291	35,2	-8,5
1,2915	39,1	-6,9
1,292	42,3	-5,7
1,2925	43,3	-5,1
1,293	42,2	-5,2
1,2935	40,5	-5,3
1,294	39,8	-5,1
1,2945	40,3	-4,5
1,295	41,1	-4,1
1,2955	40,9	-4,3
1,296	39,2	-5,6
1,2965	36,5	-7,6
1,297	33,8	-9,6
1,2975	32,1	-11,3
1,298	31,4	-12,2
1,2985	31,0	-12,3
1,299	29,6	-11,8
1,2995	26,5	-11,2
1,3	22,1	-10,6
1,3005	17,1	-10,3
1,301	12,1	-10,3
1,3015	7,5	-10,6
1,302	3,5	-11,3
1,3025	-0,2	-12,3
1,303	-4,1	-13,7
1,3035	-8,3	-15,1
1,304	-12,0	-16,2
1,3045	-14,5	-16,6
1,305	-15,3	-16,1
1,3055	-14,6	-14,5
1,306	-12,3	-12,1
1,3065	-8,9	-9,3
1,307	-5,2	-6,6
1,3075	-2,2	-4,4
1,308	-0,2	-2,7
1,3085	0,7	-1,3
1,309	1,1	-0,1
1,3095	1,6	1,2
1,31	2,6	2,7
1,3105	4,3	4,4
1,311	6,7	6,2
1,3115	8,9	7,9
1,312	9,2	9,3
1,3125	5,9	10,2
1,313	-1,0	10,2
1,3135	-9,5	9,0
1,314	-16,6	6,8
1,3145	-20,0	3,9
1,315	-18,5	1,2
1,3155	-12,0	-0,8
1,316	-2,2	-2,1
1,3165	8,4	-3,1
1,317	17,0	-4,7
1,3175	22,3	-7,6
1,318	25,0	-11,5
1,3185	26,4	-15,4
1,319	27,8	-18,1
1,3195	29,7	-19,1
1,32	32,2	-18,5
1,3205	35,1	-17,1
1,321	38,0	-15,5
1,3215	40,3	-14,2
1,322	42,0	-13,0
1,3225	43,6	-12,1
1,323	45,3	-12,1
1,3235	46,7	-13,2
1,324	47,2	-15,3
1,3245	47,1	-17,7
1,325	46,0	-19,6
1,3255	43,5	-20,6
1,326	38,6	-20,7
1,3265	31,5	-19,9
1,327	23,5	-18,3
1,3275	16,2	-16,2
1,328	10,0	-13,7
1,3285	4,9	-11,3
1,329	0,3	-9,5
1,3295	-3,5	-8,5
1,33	-6,0	-8,2
1,3305	-6,6	-8,4
1,331	-4,9	-8,5
1,3315	-1,3	-8,0
1,332	3,5	-6,6
1,3325	8,0	-4,6
1,333	11,6	-3,0
1,3335	14,5	-2,4
1,334	17,2	-3,3
1,3345	20,0	-5,1
1,335	22,9	-7,0
1,3355	26,0	-7,9
1,336	29,0	-7,3
1,3365	31,0	-5,8
1,337	31,3	-4,4
1,3375	30,1	-4,1
1,338	28,3	-5,9
1,3385	27,0	-9,2
1,339	26,5	-12,9
1,3395	26,5	-15,4
1,34	25,8	-16,4
1,3405	22,5	-16,4
1,341	16,0	-16,1
1,3415	7,1	-15,7
1,342	-1,5	-14,7
1,3425	-7,3	-12,8
1,343	-10,0	-10,3
1,3435	-11,9	-7,9
1,344	-15,2	-6,8
1,3445	-19,1	-7,4
1,345	-21,0	-9,2
1,3455	-18,0	-11,3
1,346	-10,4	-13,1
1,3465	-0,6	-14,5
1,347	8,6	-15,6
1,3475	15,5	-16,5
1,348	19,8	-16,9
1,3485	21,9	-16,1
1,349	22,4	-13,9
1,3495	21,7	-10,8
1,35	19,6	-7,6
1,3505	16,3	-4,3
1,351	13,2	-1,5
1,3515	12,2	0,8
1,352	13,7	2,1
1,3525	16,4	2,5
1,353	18,8	1,7
1,3535	19,6	-0,1
1,354	17,2	-2,5
1,3545	10,4	-4,9
1,355	-1,5	-6,8
1,3555	-18,1	-8,7
1,356	-37,2	-11,1
1,3565	-55,1	-13,9
1,357	-67,8	-16,2
1,3575	-73,5	-17,0
1,358	-72,3	-16,1
1,3585	-65,4	-13,9
1,359	-54,0	-10,9
1,3595	-39,7	-7,9
1,36	-23,5	-5,7
1,3605	-6,4	-4,5
1,361	10,9	-4,1
1,3615	27,8	-4,2
1,362	43,1	-4,5
1,3625	56,2	-4,9
1,363	66,4	-5,2
1,3635	73,4	-5,3
1,364	76,7	-4,7
1,3645	76,3	-3,6
1,365	72,8	-2,0
1,3655	67,5	0,0
1,366	62,0	2,0
1,3665	58,0	3,1
1,367	56,2	2,5
1,3675	55,1	0,3
1,368	52,6	-2,8
1,3685	47,6	-5,4
1,369	40,9	-7,1
1,3695	34,6	-8,0
1,37	30,2	-8,6
1,3705	28,1	-9,0
1,371	28,0	-8,9
1,3715	28,6	-8,5
1,372	28,9	-8,2
1,3725	28,2	-8,4
1,373	26,9	-9,3
1,3735	26,0	-10,4
1,374	26,5	-11,1
1,3745	28,7	-11,1
1,375	31,2	-10,2
1,3755	32,5	-8,9
1,376	31,7	-7,3
1,3765	28,9	-5,6
1,377	24,9	-4,0
1,3775	20,3	-3,2
1,378	15,6	-3,6
1,3785	11,8	-5,1
1,379	9,6	-6,8
1,3795	8,9	-7,8
1,38	8,9	-8,2
1,3805	8,9	-8,4
1,381	8,8	-8,8
1,3815	9,0	-8,9
1,382	9,9	-8,4
1,3825	11,5	-7,4
1,383	13,7	-6,5
1,3835	16,3	-6,2
1,384	19,1	-6,7
1,3845	22,3	-7,7
1,385	25,2	-8,9
1,3855	27,3	-9,7
1,386	28,3	-10,2
1,3865	28,1	-10,7
1,387	26,8	-11,4
1,3875	24,7	-12,0
1,388	21,8	-12,0
1,3885	18,2	-11,3
1,389	14,1	-10,0
1,3895	10,1	-8,5
1,39	6,9	-7,2
1,3905	4,2	-6,2
1,391	0,3	-5,6
1,3915	-6,0	-5,4
1,392	-14,7	-5,4
1,3925	-24,2	-5,5
1,393	-31,7	-5,2
1,3935	-35,4	-4,3
1,394	-35,4	-2,8
1,3945	-33,1	-1,0
1,395	-30,2	0,5
1,3955	-27,2	1,7
1,396	-23,7	2,3
1,3965	-19,0	2,4
1,397	-12,7	2,4
1,3975	-5,0	2,5
1,398	3,1	3,2
1,3985	10,9	4,2
1,399	18,3	4,9
1,3995	25,6	4,7
1,4	32,6	3,0
1,4005	38,3	-0,6
1,401	42,1	-6,3
1,4015	44,4	-13,1
1,402	45,4	-19,5
1,4025	44,7	-24,6
1,403	41,7	-28,0
1,4035	36,8	-30,1
1,404	31,1	-31,1
1,4045	24,8	-31,0
1,405	17,5	-30,0
1,4055	9,5	-28,5
1,406	2,4	-26,8
1,4065	-1,7	-25,3
1,407	-1,9	-24,1
1,4075	0,6	-23,1
1,408	4,2	-22,1
1,4085	8,2	-20,9
1,409	12,4	-19,3
1,4095	16,9	-17,3
1,41	21,6	-15,1
1,4105	26,1	-12,9
1,411	30,4	-10,9
1,4115	34,5	-9,0
1,412	38,0	-7,3
1,4125	40,4	-5,9
1,413	41,7	-4,8
1,4135	41,8	-3,7
1,414	41,0	-2,4
1,4145	38,8	-1,0
1,415	35,2	0,1
1,4155	30,6	0,5
1,416	26,3	-0,2
1,4165	24,2	-1,7
1,417	24,6	-3,7
1,4175	26,3	-6,0
1,418	27,7	-8,2
1,4185	27,4	-10,3
1,419	25,7	-12,5
1,4195	23,1	-14,9
1,42	19,8	-17,1
1,4205	15,9	-18,4
1,421	11,8	-18,3
1,4215	8,0	-16,7
1,422	4,9	-14,5
1,4225	2,6	-12,3
1,423	1,4	-10,6
1,4235	0,4	-9,6
1,424	-2,3	-9,2
1,4245	-9,3	-9,3
1,425	-20,9	-9,7
1,4255	-34,6	-9,9
1,426	-46,6	-9,6
1,4265	-54,1	-8,7
1,427	-56,5	-7,4
1,4275	-54,3	-6,1
1,428	-48,9	-4,9
1,4285	-41,5	-3,9
1,429	-32,8	-3,2
1,4295	-23,2	-2,8
1,43	-12,7	-2,8
1,4305	-1,9	-3,3
1,431	8,5	-4,0
1,4315	18,5	-4,6
1,432	28,8	-4,6
1,4325	39,7	-3,7
1,433	50,0	-2,2
1,4335	57,8	-0,8
1,434	61,9	-0,1
1,4345	62,3	-0,6
1,435	60,8	-2,1
1,4355	59,8	-4,2
1,436	60,4	-6,5
1,4365	61,8	-9,2
1,437	62,3	-12,4
1,4375	60,8	-15,5
1,438	56,7	-17,8
1,4385	50,5	-19,1
1,439	43,6	-19,1
1,4395	37,5	-18,3
1,44	32,6	-17,6
1,4405	28,0	-17,5
1,441	23,2	-18,4
1,4415	18,6	-19,9
1,442	14,9	-21,5
1,4425	12,1	-22,4
1,443	9,4	-22,2
1,4435	6,3	-20,7
1,444	2,9	-18,0
1,4445	0,3	-14,8
1,445	-1,3	-11,5
1,4455	-3,2	-8,8
1,446	-7,2	-7,0
1,4465	-13,9	-5,9
1,447	-22,0	-5,4
1,4475	-28,6	-5,1
1,448	-31,8	-5,0
1,4485	-30,9	-4,7
1,449	-26,7	-4,5
1,4495	-20,2	-4,3
1,45	-12,4	-4,2
1,4505	-4,6	-4,2
1,451	3,1	-4,0
1,4515	11,6	-3,4
1,452	22,6	-2,2
1,4525	36,4	-0,3
1,453	51,4	1,8
1,4535	63,7	3,5
1,454	69,6	4,0
1,4545	66,6	2,8
1,455	54,7	-0,1
1,4555	36,2	-3,4
1,456	15,3	-6,0
1,4565	-2,7	-7,4
1,457	-13,5	-8,2
1,4575	-15,5	-9,0
1,458	-11,0	-10,1
1,4585	-3,8	-11,2
1,459	3,2	-11,5
1,4595	8,8	-10,8
1,46	13,4	-9,0
1,4605	18,0	-6,8
1,461	23,0	-4,4
1,4615	27,9	-2,1
1,462	32,3	-0,2
1,4625	36,4	1,3
1,463	40,5	2,3
1,4635	44,2	2,8
1,464	46,6	2,6
1,4645	47,1	1,4
1,465	45,6	-0,5
1,4655	43,1	-2,6
1,466	41,2	-4,6
1,4665	41,4	-6,1
1,467	43,5	-7,1
1,4675	46,2	-7,8
1,468	47,8	-8,7
1,4685	47,9	-9,3
1,469	46,9	-9,3
1,4695	45,4	-8,8
1,47	43,3	-8,2
1,4705	40,7	-7,6
1,471	37,8	-7,3
1,4715	35,0	-7,7
1,472	31,9	-8,8
1,4725	28,5	-10,3
1,473	24,8	-11,9
1,4735	21,2	-13,3
1,474	17,8	-14,9
1,4745	14,5	-16,9
1,475	11,6	-19,2
1,4755	9,3	-21,2
1,476	7,5	-21,9
1,4765	5,8	-21,4
1,477	4,3	-20,0
1,4775	3,0	-18,3
1,478	2,8	-16,4
1,4785	3,8	-14,4
1,479	6,1	-12,5
1,4795	8,9	-10,5
1,48	11,6	-8,6
1,4805	13,0	-6,7
1,481	11,9	-5,0
1,4815	8,8	-3,7
1,482	5,0	-2,7
1,4825	1,6	-2,3
1,483	-1,7	-2,1
1,4835	-5,9	-2,3
1,484	-11,3	-2,7
1,4845	-17,0	-3,2
1,485	-21,4	-3,8
1,4855	-23,2	-4,6
1,486	-22,1	-5,9
1,4865	-18,3	-7,1
1,487	-12,9	-7,6
1,4875	-6,8	-6,8
1,488	-0,8	-4,9
1,4885	4,6	-2,3
1,489	9,4	0,2
1,4895	13,5	2,0
1,49	16,9	2,9
1,4905	19,0	3,3
1,491	18,9	3,7
1,4915	15,8	4,4
1,492	10,7	4,9
1,4925	5,7	4,6
1,493	3,4	3,2
1,4935	5,1	1,5
1,494	9,6	0,3
1,4945	14,7	-0,4
1,495	19,4	-1,2
1,4955	24,1	-2,9
1,496	28,8	-5,4
1,4965	32,2	-8,3
1,497	32,3	-11,2
1,4975	27,7	-13,8
1,498	18,9	-15,9
1,4985	8,2	-17,3
1,499	-1,2	-17,8
1,4995	-6,8	-17,2
1,5	-8,2	-15,9
1,5005	-6,5	-14,3
1,501	-3,4	-13,5
1,5015	0,2	-13,9
1,502	4,1	-15,3
1,5025	8,8	-16,5
1,503	14,1	-16,7
1,5035	20,0	-15,6
1,504	25,7	-14,0
1,5045	30,0	-12,9
1,505	31,5	-12,7
1,5055	30,0	-12,9
1,506	26,2	-12,8
1,5065	21,3	-11,9
1,507	16,2	-10,5
1,5075	11,6	-8,8
1,508	7,5	-7,3
1,5085	3,8	-5,9
1,509	0,9	-4,5
1,5095	-0,2	-2,8
1,51	1,4	-0,8
1,5105	5,6	1,2
1,511	10,8	2,7
1,5115	15,0	3,5
1,512	17,5	3,4
1,5125	18,7	2,5
1,513	19,7	0,8
1,5135	20,0	-1,5
1,514	18,7	-3,9
1,5145	15,8	-5,7
1,515	12,3	-6,2
1,5155	10,3	-5,8
1,516	11,3	-4,9
1,5165	15,9	-4,4
1,517	22,6	-4,7
1,5175	29,5	-5,9
1,518	35,3	-7,7
1,5185	40,1	-9,7
1,519	44,5	-11,7
1,5195	48,2	-13,7
1,52	50,4	-15,8
1,5205	51,0	-17,5
1,521	50,3	-18,3
1,5215	49,5	-17,7
1,522	48,9	-15,9
1,5225	48,4	-13,2
1,523	47,3	-10,2
1,5235	45,2	-7,6
1,524	41,8	-6,0
1,5245	37,7	-5,9
1,525	33,3	-7,5
1,5255	29,4	-10,0
1,526	26,2	-12,3
1,5265	23,7	-13,3
1,527	21,9	-12,6
1,5275	20,8	-10,3
1,528	20,3	-7,1
1,5285	20,8	-3,4
1,529	22,2	-0,3
1,5295	24,7	1,6
1,53	28,0	1,8
1,5305	30,6	0,7
1,531	31,2	-1,4
1,5315	29,3	-3,7
1,532	25,6	-5,7
1,5325	21,6	-7,1
1,533	18,2	-7,6
1,5335	16,0	-7,3
1,534	15,2	-6,7
1,5345	15,3	-6,3
1,535	15,9	-6,3
1,5355	16,5	-6,5
1,536	16,8	-6,9
1,5365	16,0	-7,5
1,537	11,7	-8,3
1,5375	2,8	-9,1
1,538	-9,6	-9,6
1,5385	-22,1	-9,8
1,539	-31,4	-9,8
1,5395	-36,2	-9,3
1,54	-36,8	-8,5
1,5405	-34,4	-7,9
1,541	-29,7	-7,5
1,5415	-22,7	-7,1
1,542	-13,6	-6,4
1,5425	-3,3	-5,5
1,543	6,4	-4,5
1,5435	14,1	-3,3
1,544	19,4	-1,8
1,5445	23,3	0,1
1,545	27,0	2,3
1,5455	31,0	4,5
1,546	35,5	6,4
1,5465	40,0	8,1
1,547	42,9	9,9
1,5475	42,8	11,7
1,548	40,3	13,1
1,5485	38,3	13,4
1,549	39,1	12,4
1,5495	42,6	10,7
1,55	46,7	9,3
1,5505	49,1	8,3
1,551	49,0	7,3
1,5515	46,6	5,8
1,552	42,3	3,3
1,5525	36,9	0,0
1,553	31,3	-3,8
1,5535	26,9	-7,3
1,554	24,7	-9,9
1,5545	23,8	-11,8
1,555	22,0	-13,6
1,5555	16,5	-16,2
1,556	6,2	-19,3
1,5565	-7,6	-22,2
1,557	-21,7	-23,8
1,5575	-32,8	-23,7
1,558	-38,9	-22,2
1,5585	-40,1	-19,8
1,559	-37,3	-17,3
1,5595	-31,7	-14,8
1,56	-24,3	-12,4
1,5605	-16,3	-10,2
1,561	-7,8	-8,2
1,5615	1,0	-6,2
1,562	10,3	-4,2
1,5625	19,6	-2,3
1,563	28,4	-0,7
1,5635	35,7	0,4
1,564	41,0	1,3
1,5645	44,0	1,9
1,565	45,3	2,2
1,5655	45,0	2,2
1,566	43,2	1,8
1,5665	39,5	1,0
1,567	34,1	0,3
1,5675	27,9	-0,4
1,568	22,8	-1,9
1,5685	19,7	-4,6
1,569	18,0	-8,3
1,5695	16,5	-12,1
1,57	14,7	-15,1
1,5705	12,2	-16,6
1,571	8,7	-16,7
1,5715	4,3	-15,8
1,572	0,2	-14,1
1,5725	-2,1	-12,1
1,573	-1,1	-10,2
1,5735	2,9	-8,9
1,574	6,1	-8,6
1,5745	4,1	-9,4
1,575	-4,6	-10,9
1,5755	-17,4	-12,2
1,576	-30,1	-12,3
1,5765	-39,3	-11,3
1,577	-43,6	-9,7
1,5775	-43,2	-8,4
1,578	-39,4	-7,4
1,5785	-32,9	-6,4
1,579	-24,5	-5,0
1,5795	-14,7	-3,3
1,58	-5,4	-1,4
1,5805	1,5	0,4
1,581	4,9	2,2
1,5815	5,7	4,2
1,582	6,3	6,3
1,5825	8,8	8,1
1,583	13,8	9,4
1,5835	20,3	10,1
1,584	26,7	10,0
1,5845	31,8	9,3
1,585	35,0	8,4
1,5855	37,3	7,8
1,586	40,6	6,7
1,5865	45,4	4,4
1,587	51,0	0,1
1,5875	55,5	-5,5
1,588	57,6	-11,2
1,5885	56,5	-15,8
1,589	52,3	-18,2
1,5895	45,4	-18,0
1,59	37,0	-15,7
1,5905	28,5	-12,2
1,591	21,1	-8,8
1,5915	16,1	-6,4
1,592	13,4	-5,6
1,5925	12,4	-6,0
1,593	12,0	-7,2
1,5935	11,0	-8,8
1,594	8,8	-10,0
1,5945	5,3	-10,7
1,595	1,4	-10,5
1,5955	-2,3	-9,7
1,596	-5,8	-8,5
1,5965	-8,9	-7,0
1,597	-10,9	-5,2
1,5975	-10,9	-2,9
1,598	-8,1	-0,2
1,5985	-2,6	2,6
1,599	5,4	4,9
1,5995	15,3	6,3
1,6	26,3	6,4
1,6005	37,2	5,1
1,601	46,0	2,7
1,6015	51,3	-0,8
1,602	52,3	-4,6
1,6025	50,0	-8,3
1,603	45,9	-11,5
1,6035	41,8	-14,0
1,604	38,9	-16,2
1,6045	36,7	-18,3
1,605	33,6	-20,4
1,6055	28,8	-22,2
1,606	23,1	-23,0
1,6065	18,1	-22,7
1,607	14,8	-21,5
1,6075	12,9	-20,4
1,608	11,6	-19,4
1,6085	10,8	-18,3
1,609	10,2	-16,5
1,6095	10,0	-14,1
1,61	10,1	-11,2
1,6105	10,5	-8,3
1,611	11,5	-5,6
1,6115	13,6	-3,3
1,612	17,3	-1,5
1,6125	22,5	-0,0
1,613	28,6	0,9
1,6135	34,1	1,0
1,614	37,8	0,2
1,6145	39,3	-1,4
1,615	38,3	-3,1
1,6155	35,6	-4,3
1,616	32,1	-4,7
1,6165	28,8	-4,5
1,617	26,3	-4,3
1,6175	24,4	-5,1
1,618	22,9	-7,6
1,6185	22,1	-11,3
1,619	22,1	-14,6
1,6195	21,8	-16,8
1,62	20,0	-17,8
1,6205	16,0	-18,3
1,621	10,8	-18,7
1,6215	6,2	-18,5
1,622	3,7	-17,5
1,6225	3,8	-15,7
1,623	5,9	-13,3
1,6235	8,9	-11,0
1,624	11,7	-9,3
1,6245	13,8	-8,3
1,625	15,5	-8,0
1,6255	16,7	-7,7
1,626	15,9	-6,9
1,6265	10,6	-5,8
1,627	-0,4	-4,5
1,6275	-15,3	-3,3
1,628	-29,8	-2,4
1,6285	-40,3	-1,8
1,629	-45,2	-1,3
1,6295	-44,7	-1,1
1,63	-40,1	-1,3
1,6305	-32,3	-2,1
1,631	-22,2	-3,3
1,6315	-11,1	-4,5
1,632	-0,3	-5,9
1,6325	9,7	-7,2
1,633	18,5	-8,1
1,6335	25,8	-8,7
1,634	31,2	-9,5
1,6345	34,1	-10,8
1,635	35,3	-12,2
1,6355	35,9	-13,2
1,636	35,5	-12,9
1,6365	32,3	-10,9
1,637	25,6	-7,7
1,6375	17,7	-4,4
1,638	12,5	-2,6
1,6385	11,3	-3,0
1,639	12,7	-4,9
1,6395	13,8	-7,2
1,64	13,8	-8,8
1,6405	13,3	-9,1
1,641	13,9	-8,2
1,6415	16,0	-6,5
1,642	19,0	-4,8
1,6425	21,7	-3,4
1,643	23,3	-2,4
1,6435	23,4	-2,0
1,644	22,3	-2,0
1,6445	20,8	-2,2
1,645	19,7	-2,7
1,6455	19,2	-3,3
1,646	19,3	-4,4
1,6465	19,2	-6,0
1,647	18,6	-7,8
1,6475	18,5	-9,6
1,648	20,9	-10,9
1,6485	26,9	-11,5
1,649	35,2	-11,3
1,6495	42,2	-10,9
1,65	44,9	-10,8
1,6505	42,8	-11,3
1,651	37,0	-12,8
1,6515	29,3	-15,0
1,652	21,7	-17,3
1,6525	15,5	-19,0
1,653	11,1	-19,8
1,6535	7,9	-19,5
1,654	4,7	-17,8
1,6545	0,5	-15,1
1,655	-5,6	-11,8
1,6555	-13,3	-8,6
1,656	-21,2	-6,0
1,6565	-27,6	-4,4
1,657	-31,5	-4,0
1,6575	-32,4	-4,8
1,658	-30,3	-6,6
1,6585	-25,4	-8,6
1,659	-18,0	-10,0
1,6595	-8,8	-10,5
1,66	1,5	-10,1
1,6605	12,0	-9,1
1,661	21,7	-7,9
1,6615	29,5	-7,1
1,662	34,9	-7,0
1,6625	38,0	-7,7
1,663	38,9	-8,4
1,6635	37,2	-8,3
1,664	32,3	-7,0
1,6645	24,8	-4,7
1,665	17,1	-1,9
1,6655	11,3	0,7
1,666	7,6	2,5
1,6665	4,4	3,2
1,667	0,5	2,1
1,6675	-4,0	-0,7
1,668	-7,9	-4,8
1,6685	-10,3	-9,0
1,669	-10,8	-12,7
1,6695	-9,3	-15,3
1,67	-5,9	-16,8
1,6705	-1,7	-17,0
1,671	2,9	-16,0
1,6715	8,1	-13,8
1,672	14,5	-10,8
1,6725	22,1	-7,6
1,673	28,9	-4,9
1,6735	32,8	-3,6
1,674	32,5	-4,1
1,6745	28,7	-6,1
1,675	23,3	-9,2
1,6755	18,1	-12,5
1,676	13,7	-15,1
1,6765	8,5	-15,9
1,677	1,1	-15,2
1,6775	-8,6	-13,9
1,678	-18,4	-12,6
1,6785	-24,8	-11,4
1,679	-25,7	-10,5
1,6795	-21,1	-9,8
1,68	-12,7	-9,0
1,6805	-2,3	-8,1
1,681	8,8	-7,0
1,6815	19,8	-5,8
1,682	29,9	-4,5
1,6825	37,5	-3,5
1,683	41,7	-3,4
1,6835	41,9	-4,5
1,684	38,7	-7,0
1,6845	33,3	-10,4
1,685	27,8	-13,9
1,6855	23,4	-17,0
1,686	20,6	-19,5
1,6865	18,2	-21,2
1,687	14,2	-22,0
1,6875	7,9	-21,6
1,688	0,8	-20,1
1,6885	-4,4	-18,0
1,689	-5,5	-15,7
1,6895	-2,2	-13,7
1,69	4,4	-11,9
1,6905	12,7	-10,4
1,691	21,3	-9,0
1,6915	28,9	-7,8
1,692	34,8	-6,9
1,6925	38,7	-6,3
1,693	40,4	-6,1
1,6935	40,6	-5,9
1,694	40,0	-5,2
1,6945	38,6	-3,4
1,695	36,1	-0,9
1,6955	32,0	1,5
1,696	26,7	2,8
1,6965	21,6	2,5
1,697	18,1	1,2
1,6975	15,8	-0,7
1,698	13,8	-2,7
1,6985	11,9	-4,9
1,699	11,4	-7,3
1,6995	12,9	-9,9
1,7	15,1	-12,4
1,7005	15,9	-14,8
1,701	14,1	-17,2
1,7015	10,3	-19,3
1,702	6,3	-20,8
1,7025	3,9	-21,7
1,703	3,6	-21,8
1,7035	5,1	-21,3
1,704	7,7	-20,2
1,7045	10,6	-18,6
1,705	13,3	-16,7
1,7055	15,6	-14,8
1,706	17,0	-13,4
1,7065	17,6	-12,9
1,707	17,4	-13,3
1,7075	17,1	-14,2
1,708	17,2	-14,9
1,7085	17,9	-14,7
1,709	19,3	-13,3
1,7095	20,8	-10,8
1,71	22,5	-7,6
1,7105	24,4	-4,3
1,711	25,5	-1,3
1,7115	23,1	0,7
1,712	15,3	1,8
1,7125	3,2	2,2
1,713	-10,1	2,1
1,7135	-20,9	2,0
1,714	-28,2	2,5
1,7145	-33,3	3,6
1,715	-37,8	5,0
1,7155	-42,0	6,0
1,716	-44,2	6,0
1,7165	-42,9	5,0
1,717	-37,8	3,1
1,7175	-29,2	0,7
1,718	-18,7	-1,8
1,7185	-7,3	-3,9
1,719	4,5	-4,9
1,7195	16,3	-5,0
1,72	27,8	-4,4
1,7205	37,9	-3,4
1,721	45,3	-2,2
1,7215	48,6	-0,8
1,722	47,3	0,0
1,7225	43,1	-0,9
1,723	39,2	-4,2
1,7235	37,7	-9,0
1,724	38,3	-13,6
1,7245	39,4	-16,3
1,725	39,0	-16,6
1,7255	36,5	-15,3
1,726	32,7	-13,4
1,7265	28,8	-12,2
1,727	25,3	-12,0
1,7275	22,2	-12,4
1,728	19,3	-12,6
1,7285	16,8	-12,3
1,729	14,3	-11,8
1,7295	11,8	-11,5
1,73	8,9	-11,9
1,7305	5,7	-12,9
1,731	2,0	-14,1
1,7315	-1,8	-14,8
1,732	-4,4	-14,8
1,7325	-4,7	-14,3
1,733	-2,5	-13,8
1,7335	0,7	-13,8
1,734	3,3	-14,4
1,7345	4,4	-15,5
1,735	4,5	-16,3
1,7355	4,2	-16,5
1,736	4,3	-15,8
1,7365	5,2	-14,3
1,737	7,2	-12,4
1,7375	10,6	-10,2
1,738	15,4	-8,1
1,7385	21,0	-6,3
1,739	25,9	-5,5
1,7395	28,9	-5,6
1,74	29,6	-6,3
1,7405	28,2	-7,2
1,741	25,5	-7,5
1,7415	22,8	-6,8
1,742	21,3	-5,3
1,7425	21,3	-3,1
1,743	22,3	-0,6
1,7435	23,7	1,6
1,744	25,5	3,3
1,7445	28,3	4,4
1,745	31,4	4,7
1,7455	33,3	3,9
1,746	32,0	1,8
1,7465	27,1	-1,3
1,747	19,5	-4,7
1,7475	10,3	-7,3
1,748	0,8	-8,5
1,7485	-7,8	-8,5
1,749	-14,4	-8,4
1,7495	-18,7	-8,8
1,75	-20,6	-9,6
1,7505	-20,1	-10,5
1,751	-17,6	-11,2
1,7515	-14,1	-11,7
1,752	-10,8	-12,1
1,7525	-8,5	-12,1
1,753	-7,0	-11,7
1,7535	-6,0	-11,0
1,754	-5,0	-10,3
1,7545	-3,3	-9,3
1,755	-0,2	-7,8
1,7555	5,0	-6,2
1,756	12,8	-4,6
1,7565	22,4	-3,4
1,757	31,1	-3,3
1,7575	36,0	-5,0
1,758	36,6	-8,5
1,7585	34,6	-13,2
1,759	32,4	-17,3
1,7595	31,0	-19,8
1,76	29,3	-20,3
1,7605	25,6	-19,3
1,761	19,1	-17,0
1,7615	11,4	-14,1
1,762	4,6	-11,4
1,7625	0,1	-9,8
1,763	-1,4	-9,4
1,7635	0,1	-9,9
1,764	3,6	-10,8
1,7645	7,5	-11,5
1,765	10,4	-11,8
1,7655	11,7	-11,7
1,766	11,4	-11,2
1,7665	9,8	-10,3
1,767	7,7	-9,2
1,7675	5,9	-8,2
1,768	5,3	-7,5
1,7685	5,9	-7,1
1,769	7,2	-6,9
1,7695	8,4	-6,8
1,77	8,3	-6,8
1,7705	6,2	-6,5
1,771	2,5	-6,0
1,7715	-0,9	-5,0
1,772	-1,6	-4,0
1,7725	2,6	-3,6
1,773	11,8	-4,1
1,7735	23,7	-5,7
1,774	34,8	-7,9
1,7745	42,6	-10,4
1,775	46,9	-12,9
1,7755	48,3	-15,2
1,776	47,0	-16,8
1,7765	43,8	-17,0
1,777	40,5	-15,9
1,7775	38,8	-14,1
1,778	39,1	-12,6
1,7785	39,4	-12,0
1,779	37,7	-12,8
1,7795	32,7	-14,7
1,78	24,9	-16,8
1,7805	14,6	-18,3
1,781	1,6	-18,9
1,7815	-13,3	-18,5
1,782	-27,6	-17,4
1,7825	-38,7	-16,1
1,783	-45,1	-15,0
1,7835	-46,7	-14,4
1,784	-44,3	-14,3
1,7845	-39,0	-14,3
1,785	-31,6	-14,5
1,7855	-22,8	-14,6
1,786	-12,9	-14,3
1,7865	-2,5	-13,6
1,787	7,9	-12,6
1,7875	17,8	-11,3
1,788	26,7	-9,9
1,7885	34,4	-8,2
1,789	41,3	-6,3
1,7895	47,4	-4,3
1,79	52,2	-2,5
1,7905	55,5	-0,8
1,791	57,3	1,1
1,7915	57,6	3,0
1,792	56,7	4,8
1,7925	54,7	5,8
1,793	51,8	5,9
1,7935	48,1	5,2
1,794	44,3	4,3
1,7945	40,9	3,7
1,795	38,6	3,3
1,7955	37,3	2,7
1,796	36,1	1,7
1,7965	33,8	-0,3
1,797	29,9	-3,3
1,7975	24,4	-7,1
1,798	17,7	-10,9
1,7985	10,4	-13,6
1,799	3,9	-14,8
1,7995	-0,7	-14,6
1,8	-3,8	-13,8
1,8005	-6,6	-13,4
1,801	-9,8	-13,9
1,8015	-13,4	-15,1
1,802	-16,0	-16,3
1,8025	-16,1	-16,9
1,803	-13,1	-16,2
1,8035	-7,6	-14,0
1,804	-0,8	-10,9
1,8045	5,8	-7,6
1,805	11,6	-4,8
1,8055	16,2	-3,3
1,806	20,0	-3,1
1,8065	23,7	-4,1
1,807	27,3	-5,6
1,8075	30,4	-7,3
1,808	32,5	-9,2
1,8085	32,7	-10,8
1,809	30,4	-11,5
1,8095	25,6	-10,9
1,81	18,8	-9,1
1,8105	11,9	-6,9
1,811	6,2	-4,8
1,8115	2,3	-3,5
1,812	0,3	-3,7
1,8125	-0,2	-5,3
1,813	0,4	-8,2
1,8135	1,3	-11,5
1,814	2,3	-14,4
1,8145	3,4	-16,5
1,815	5,3	-17,4
1,8155	8,2	-17,7
1,816	11,4	-17,8
1,8165	13,9	-17,9
1,817	14,6	-18,3
1,8175	12,7	-18,4
1,818	8,1	-18,1
1,8185	1,7	-17,4
1,819	-5,0	-16,3
1,8195	-10,6	-15,2
1,82	-14,4	-14,0
1,8205	-16,7	-12,8
1,821	-17,9	-11,7
1,8215	-18,4	-10,5
1,822	-17,5	-9,5
1,8225	-14,7	-8,9
1,823	-9,9	-8,8
1,8235	-4,3	-9,2
1,824	1,3	-9,7
1,8245	5,3	-10,1
1,825	6,4	-9,8
1,8255	3,6	-8,6
1,826	-2,5	-6,4
1,8265	-9,2	-3,4
1,827	-13,8	-0,2
1,8275	-15,3	3,0
1,828	-14,1	5,8
1,8285	-11,2	7,8
1,829	-6,7	8,6
1,8295	-0,2	8,4
1,83	8,5	7,4
1,8305	18,4	6,0
1,831	28,3	4,7
1,8315	36,8	3,4
1,832	42,6	2,1
1,8325	45,5	0,5
1,833	45,4	-1,6
1,8335	43,0	-4,5
1,834	39,3	-8,2
1,8345	35,2	-11,8
1,835	30,5	-14,3
1,8355	24,9	-14,7
1,836	19,9	-12,9
1,8365	18,3	-10,3
1,837	21,5	-8,1
1,8375	27,9	-7,0
1,838	34,6	-6,3
1,8385	39,9	-5,4
1,839	43,3	-4,1
1,8395	44,7	-2,8
1,84	44,1	-2,0
1,8405	41,5	-2,3
1,841	37,0	-3,3
1,8415	30,8	-4,7
1,842	23,8	-5,8
1,8425	16,3	-6,3
1,843	8,8	-6,3
1,8435	1,3	-6,2
1,844	-5,7	-5,8
1,8445	-11,3	-5,1
1,845	-15,1	-4,0
1,8455	-17,3	-2,6
1,846	-19,0	-1,5
1,8465	-21,6	-0,8
1,847	-26,6	-0,4
1,8475	-34,1	-0,1
1,848	-43,1	0,5
1,8485	-51,5	1,2
1,849	-57,7	1,6
1,8495	-60,5	1,7
1,85	-59,4	1,8
1,8505	-54,6	2,0
1,851	-46,7	2,7
1,8515	-35,5	3,7
1,852	-21,0	4,8
1,8525	-3,5	5,7
1,853	15,4	6,1
1,8535	33,5	6,0
1,854	48,9	5,8
1,8545	59,9	6,3
1,855	65,9	7,4
1,8555	67,7	8,4
1,856	66,8	8,7
1,8565	64,0	7,8
1,857	59,5	5,3
1,8575	52,6	1,2
1,858	43,4	-3,8
1,8585	32,4	-8,8
1,859	20,4	-12,4
1,8595	8,1	-14,0
1,86	-3,2	-13,5
1,8605	-12,3	-11,9
1,861	-19,1	-10,0
1,8615	-23,4	-8,5
1,862	-24,7	-7,5
1,8625	-22,5	-7,1
1,863	-17,6	-7,1
1,8635	-11,3	-7,2
1,864	-4,9	-7,2
1,8645	0,7	-6,9
1,865	5,8	-6,1
1,8655	10,5	-4,7
1,866	15,2	-3,0
1,8665	19,6	-1,8
1,867	23,0	-1,1
1,8675	24,5	-1,0
1,868	24,8	-1,3
1,8685	26,0	-1,8
1,869	30,5	-2,4
1,8695	39,8	-3,2
1,87	52,8	-4,2
1,8705	66,7	-5,6
1,871	76,9	-7,3
1,8715	81,0	-8,9
1,872	79,2	-10,0
1,8725	73,8	-10,3
1,873	67,2	-9,9
1,8735	60,2	-9,5
1,874	51,8	-9,7
1,8745	41,2	-10,6
1,875	29,0	-11,5
1,8755	17,4	-11,9
1,876	7,9	-11,5
1,8765	1,2	-10,7
1,877	-2,7	-9,8
1,8775	-4,0	-8,6
1,878	-3,3	-7,0
1,8785	-1,3	-5,2
1,879	1,3	-3,9
1,8795	4,0	-3,7
1,88	6,7	-4,9
1,8805	9,4	-6,8
1,881	11,3	-8,3
1,8815	11,4	-8,3
1,882	9,2	-6,9
1,8825	5,8	-4,8
1,883	2,7	-3,0
1,8835	1,3	-1,9
1,884	1,9	-1,9
1,8845	4,5	-2,8
1,885	8,2	-4,3
1,8855	12,3	-6,1
1,886	16,4	-8,1
1,8865	21,1	-10,0
1,887	26,9	-11,3
1,8875	33,9	-11,9
1,888	41,1	-11,6
1,8885	46,8	-10,3
1,889	50,0	-8,7
1,8895	50,6	-7,0
1,89	49,7	-5,8
1,8905	48,3	-5,0
1,891	46,8	-4,8
1,8915	44,2	-5,1
1,892	39,7	-5,6
1,8925	33,4	-6,2
1,893	27,4	-6,7
1,8935	22,8	-7,2
1,894	18,6	-7,9
1,8945	12,1	-8,8
1,895	2,3	-10,0
1,8955	-9,1	-11,5
1,896	-19,9	-13,3
1,8965	-28,9	-14,8
1,897	-35,4	-15,6
1,8975	-38,8	-15,5
1,898	-38,4	-14,4
1,8985	-34,0	-12,6
1,899	-26,0	-10,4
1,8995	-15,1	-8,1
1,9	-2,6	-6,0
1,9005	9,9	-4,7
1,901	20,8	-4,3
1,9015	29,1	-4,6
1,902	35,0	-5,1
1,9025	39,0	-5,3
1,903	41,7	-4,8
1,9035	43,3	-3,7
1,904	43,8	-1,9
1,9045	43,5	0,5
1,905	43,1	3,4
1,9055	43,1	6,3
1,906	43,8	8,7
1,9065	44,9	10,1
1,907	45,5	10,3
1,9075	45,2	9,3
1,908	43,8	7,2
1,9085	41,8	4,9
1,909	39,3	3,1
1,9095	36,6	2,0
1,91	33,9	1,2
1,9105	30,9	0,1
1,911	27,3	-1,3
1,9115	22,6	-2,8
1,912	17,2	-4,7
1,9125	11,8	-6,7
1,913	8,1	-8,1
1,9135	7,2	-8,4
1,914	8,9	-7,4
1,9145	12,1	-5,9
1,915	15,1	-4,6
1,9155	17,2	-3,7
1,916	18,2	-3,0
1,9165	18,4	-2,5
1,917	18,1	-2,2
1,9175	17,7	-2,3
1,918	17,5	-2,7
1,9185	17,2	-2,9
1,919	15,1	-2,8
1,9195	10,5	-2,3
1,92	3,8	-1,9
1,9205	-3,1	-1,7
1,921	-8,5	-1,6
1,9215	-11,1	-1,6
1,922	-10,7	-1,3
1,9225	-7,4	-0,7
1,923	-2,1	-0,2
1,9235	4,0	-0,3
1,924	10,0	-1,1
1,9245	15,0	-2,3
1,925	18,9	-3,0
1,9255	21,7	-3,0
1,926	24,0	-2,4
1,9265	25,8	-1,6
1,927	25,8	-0,6
1,9275	21,8	0,9
1,928	13,3	2,9
1,9285	2,2	5,2
1,929	-8,1	7,4
1,9295	-15,3	8,8
1,93	-18,9	9,1
1,9305	-18,6	8,4
1,931	-14,4	7,5
1,9315	-6,2	6,9
1,932	4,9	6,9
1,9325	16,9	7,4
1,933	28,2	7,7
1,9335	37,2	7,5
1,934	43,4	7,1
1,9345	46,7	6,5
1,935	47,6	6,3
1,9355	46,4	6,3
1,936	43,7	6,5
1,9365	39,7	6,5
1,937	33,5	6,1
1,9375	24,5	5,5
1,938	14,1	4,8
1,9385	5,9	4,1
1,939	4,2	3,7
1,9395	9,9	4,1
1,94	20,3	5,5
1,9405	30,5	7,0
1,941	36,8	7,6
1,9415	38,1	6,4
1,942	35,8	3,8
1,9425	31,8	0,5
1,943	27,2	-3,0
1,9435	22,1	-6,2
1,944	16,7	-8,5
1,9445	11,3	-9,5
1,945	6,1	-9,3
1,9455	1,5	-8,3
1,946	-2,2	-6,9
1,9465	-4,4	-5,6
1,947	-4,2	-4,5
1,9475	-1,8	-3,5
1,948	1,9	-2,2
1,9485	4,3	-0,6
1,949	2,8	0,9
1,9495	-3,4	1,6
1,95	-13,1	1,4
1,9505	-24,3	0,7
1,951	-34,7	-0,1
1,9515	-42,3	-0,6
1,952	-45,5	-0,4
1,9525	-44,6	0,6
1,953	-41,1	2,1
1,9535	-36,4	3,5
1,954	-30,9	4,3
1,9545	-24,1	4,1
1,955	-14,4	3,4
1,9555	-0,6	2,9
1,956	16,5	3,1
1,9565	32,5	3,3
1,957	41,8	2,9
1,9575	42,0	1,5
1,958	35,2	-0,2
1,9585	25,9	-1,3
1,959	17,9	-1,5
1,9595	13,1	-0,8
1,96	11,9	0,4
1,9605	13,9	1,5
1,961	18,6	1,9
1,9615	25,6	1,6
1,962	34,4	1,0
1,9625	43,7	0,4
1,963	51,7	0,1
1,9635	57,5	-0,1
1,964	60,8	-0,3
1,9645	62,3	-0,5
1,965	62,3	-0,8
1,9655	60,8	-0,9
1,966	58,0	-0,9
1,9665	54,1	-0,7
1,967	50,0	-0,6
1,9675	46,1	-0,8
1,968	42,8	-1,3
1,9685	40,2	-2,0
1,969	38,8	-3,3
1,9695	38,5	-5,3
1,97	38,4	-8,2
1,9705	38,1	-11,1
1,971	37,6	-13,1
1,9715	37,2	-14,0
1,972	36,8	-14,0
1,9725	36,3	-13,8
1,973	35,2	-13,4
1,9735	33,1	-12,8
1,974	30,2	-12,0
1,9745	27,2	-11,1
1,975	24,9	-10,0
1,9755	23,6	-8,6
1,976	23,5	-6,7
1,9765	24,1	-4,4
1,977	25,4	-2,0
1,9775	27,0	0,5
1,978	28,8	2,9
1,9785	30,4	5,2
1,979	31,8	7,2
1,9795	32,9	8,4
1,98	33,4	8,7
1,9805	33,0	8,3
1,981	31,9	7,9
1,9815	30,3	7,7
1,982	28,0	7,7
1,9825	24,8	7,5
1,983	20,3	7,2
1,9835	15,1	6,4
1,984	9,6	4,6
1,9845	4,4	1,8
1,985	0,0	-1,7
1,9855	-3,6	-4,8
1,986	-6,4	-7,0
1,9865	-8,5	-8,3
1,987	-9,9	-9,2
1,9875	-10,2	-10,3
1,988	-9,4	-11,5
1,9885	-7,5	-12,3
1,989	-5,1	-12,0
1,9895	-2,6	-10,7
1,99	-0,6	-8,6
1,9905	0,4	-6,3
1,991	1,0	-4,4
1,9915	1,4	-3,1
1,992	1,7	-2,5
1,9925	1,3	-2,3
1,993	0,4	-2,2
1,9935	-0,4	-1,8
1,994	-0,1	-1,4
1,9945	1,7	-1,3
1,995	4,4	-1,7
1,9955	7,5	-2,6
1,996	10,4	-3,2
1,9965	12,7	-3,3
1,997	13,9	-3,0
1,9975	13,7	-2,3
1,998	12,6	-1,1
1,9985	11,5	0,3
1,999	11,6	1,4
1,9995	13,3	2,0
2	16,6	1,5
2,0005	20,6	-0,2
2,001	24,5	-2,6
2,0015	27,8	-4,8
2,002	30,4	-6,1
2,0025	32,2	-6,7
2,003	33,8	-6,8
2,0035	35,7	-6,7
2,004	38,1	-6,4
2,0045	40,7	-5,8
2,005	42,9	-4,8
2,0055	44,1	-4,0
2,006	43,1	-3,6
2,0065	38,9	-3,7
2,007	31,3	-4,2
2,0075	21,0	-4,8
2,008	9,8	-5,2
2,0085	-0,3	-5,3
2,009	-7,5	-4,8
2,0095	-11,6	-3,7
2,01	-14,0	-2,4
2,0105	-16,4	-1,3
2,011	-18,9	-0,4
2,0115	-20,3	0,5
2,012	-19,5	1,3
2,0125	-16,5	1,8
2,013	-11,7	2,3
2,0135	-5,6	3,3
2,014	1,3	5,1
2,0145	8,4	7,4
2,015	14,9	9,3
2,0155	20,3	9,8
2,016	23,7	9,1
2,0165	24,0	7,8
2,017	20,7	6,6
2,0175	14,8	5,7
2,018	8,4	5,1
2,0185	3,3	4,3
2,019	0,4	3,3
2,0195	0,8	2,1
2,02	4,5	1,0
2,0205	10,7	0,3
2,021	18,0	0,1
2,0215	25,4	-0,0
2,022	32,5	-0,3
2,0225	39,0	-1,1
2,023	44,4	-2,6
2,0235	48,3	-4,7
2,024	50,8	-6,6
2,0245	52,2	-7,8
2,025	52,7	-8,2
2,0255	52,5	-7,5
2,026	51,5	-5,7
2,0265	49,0	-3,0
2,027	45,3	0,2
2,0275	42,2	3,0
2,028	41,7	4,3
2,0285	43,4	3,2
2,029	44,6	0,1
2,0295	43,1	-3,7
2,03	39,6	-6,7
2,0305	36,6	-8,0
2,031	36,1	-7,9
2,0315	38,2	-6,6
2,032	41,2	-4,9
2,0325	42,7	-3,4
2,033	41,0	-2,8
2,0335	36,4	-3,1
2,034	29,7	-4,4
2,0345	21,1	-6,6
2,035	11,2	-9,3
2,0355	1,2	-11,6
2,036	-7,9	-13,1
2,0365	-16,2	-13,3
2,037	-24,2	-12,4
2,0375	-31,8	-11,1
2,038	-38,2	-9,9
2,0385	-43,0	-9,0
2,039	-46,4	-8,2
2,0395	-48,5	-7,4
2,04	-49,1	-6,5
2,0405	-48,7	-5,5
2,041	-47,7	-4,7
2,0415	-46,3	-4,1
2,042	-43,9	-3,4
2,0425	-39,4	-2,3
2,043	-32,4	-0,6
2,0435	-22,6	1,2
2,044	-10,3	3,3
2,0445	4,3	5,6
2,045	19,5	7,9
2,0455	33,0	9,7
2,046	43,3	10,5
2,0465	50,2	10,2
2,047	55,4	9,1
2,0475	61,7	7,9
2,048	70,3	7,0
2,0485	78,8	5,9
2,049	83,1	4,3
2,0495	80,6	2,1
2,05	72,6	-0,1
2,0505	62,9	-1,8
2,051	54,0	-3,0
2,0515	46,6	-3,8
2,052	39,9	-4,1
2,0525	33,1	-4,3
2,053	26,0	-4,6
2,0535	19,0	-4,9
2,054	13,0	-5,1
2,0545	8,8	-5,1
2,055	7,7	-4,8
2,0555	9,3	-4,5
2,056	12,0	-4,1
2,0565	13,4	-3,6
2,057	12,8	-3,2
2,0575	11,3	-2,8
2,058	10,3	-2,4
2,0585	10,6	-1,5
2,059	12,2	-0,1
2,0595	14,5	1,5
2,06	17,1	3,0
2,0605	19,0	4,0
2,061	19,3	4,9
2,0615	18,4	5,9
2,062	17,9	6,9
2,0625	18,9	7,6
2,063	21,0	8,0
2,0635	23,1	8,4
2,064	24,7	9,2
2,0645	26,2	10,5
2,065	28,3	12,0
2,0655	31,2	13,0
2,066	34,8	13,6
2,0665	38,7	13,7
2,067	42,5	13,0
2,0675	46,2	11,2
2,068	49,2	8,1
2,0685	50,1	4,0
2,069	48,1	-0,4
2,0695	43,3	-4,3
2,07	37,5	-7,0
2,0705	32,1	-7,9
2,071	27,9	-7,5
2,0715	25,3	-6,1
2,072	23,7	-4,5
2,0725	22,9	-3,0
2,073	22,8	-2,4
2,0735	23,4	-2,7
2,074	25,1	-3,8
2,0745	27,3	-5,3
2,075	29,5	-6,7
2,0755	31,2	-7,8
2,076	32,4	-8,4
2,0765	34,0	-8,0
2,077	36,3	-6,7
2,0775	39,1	-4,4
2,078	41,2	-1,7
2,0785	41,5	0,8
2,079	39,8	2,8
2,0795	35,9	3,8
2,08	30,0	3,4
2,0805	22,3	1,3
2,081	13,4	-1,8
2,0815	4,6	-5,3
2,082	-2,4	-7,9
2,0825	-6,6	-8,9
2,083	-7,7	-8,8
2,0835	-6,7	-8,5
2,084	-4,4	-8,9
2,0845	-1,4	-10,2
2,085	2,5	-12,2
2,0855	7,2	-14,3
2,086	12,5	-15,6
2,0865	18,3	-15,5
2,087	24,0	-13,7
2,0875	29,2	-10,9
2,088	33,4	-7,9
2,0885	36,4	-5,5
2,089	38,3	-3,9
2,0895	39,1	-3,0
2,09	38,9	-2,5
2,0905	37,8	-2,4
2,091	35,5	-2,6
2,0915	32,3	-3,6
2,092	28,4	-5,2
2,0925	24,8	-7,4
2,093	22,6	-9,4
2,0935	21,7	-10,5
2,094	21,5	-10,3
2,0945	20,9	-9,3
2,095	19,0	-7,8
2,0955	15,4	-6,3
2,096	11,3	-5,3
2,0965	7,8	-4,7
2,097	5,6	-4,8
2,0975	4,7	-5,3
2,098	4,4	-6,0
2,0985	4,4	-6,3
2,099	4,3	-5,8
2,0995	4,4	-4,4
2,1	5,2	-2,4
2,1005	7,0	-0,1
2,101	9,9	1,8
2,1015	13,3	3,1
2,102	16,0	4,0
2,1025	17,5	4,3
2,103	17,7	3,7
2,1035	17,2	2,1
2,104	16,5	-0,1
2,1045	16,3	-2,1
2,105	16,7	-3,6
2,1055	17,2	-4,9
2,106	16,8	-6,3
2,1065	15,4	-8,0
2,107	13,5	-9,8
2,1075	12,0	-11,0
2,108	11,3	-11,4
2,1085	10,8	-10,6
2,109	10,5	-8,8
2,1095	9,8	-6,4
2,11	7,9	-4,3
2,1105	5,2	-3,1
2,111	3,0	-2,6
2,1115	3,1	-2,8
2,112	6,0	-3,1
2,1125	11,3	-3,3
2,113	16,8	-3,1
2,1135	20,1	-2,4
2,114	19,2	-1,7
2,1145	14,3	-1,1
2,115	7,8	-0,7
2,1155	2,5	-0,3
2,116	0,3	0,7
2,1165	1,6	2,2
2,117	6,1	3,9
2,1175	12,9	4,9
2,118	21,4	4,6
2,1185	30,9	2,8
2,119	39,0	0,2
2,1195	43,2	-2,8
2,12	42,5	-5,5
2,1205	38,7	-7,5
2,121	35,2	-8,4
2,1215	34,3	-8,0
2,122	35,7	-6,5
2,1225	37,7	-4,5
2,123	37,9	-2,8
2,1235	34,6	-1,7
2,124	28,8	-1,1
2,1245	24,1	-0,8
2,125	24,0	-0,7
2,1255	28,4	-0,6
2,126	34,5	-0,3
2,1265	39,1	0,2
2,127	40,8	0,5
2,1275	40,0	0,0
2,128	37,8	-1,8
2,1285	34,7	-4,5
2,129	31,0	-7,6
2,1295	27,1	-9,9
2,13	23,8	-10,6
2,1305	21,8	-9,9
2,131	20,7	-8,4
2,1315	17,7	-7,2
2,132	9,6	-6,9
2,1325	-4,1	-7,4
2,133	-19,9	-8,3
2,1335	-33,2	-8,7
2,134	-40,9	-8,6
2,1345	-42,2	-8,2
2,135	-38,2	-7,5
2,1355	-30,9	-7,0
2,136	-22,1	-6,6
2,1365	-12,9	-6,0
2,137	-3,8	-5,0
2,1375	5,6	-3,3
2,138	14,8	-0,9
2,1385	23,6	1,8
2,139	31,9	4,4
2,1395	40,6	6,9
2,14	50,3	9,1
2,1405	59,7	10,8
2,141	66,0	11,5
2,1415	67,1	11,3
2,142	62,9	10,3
2,1425	55,7	8,9
2,143	49,1	7,5
2,1435	45,9	6,0
2,144	45,9	4,2
2,1445	46,5	1,9
2,145	44,1	-0,9
2,1455	36,9	-3,9
2,146	25,5	-6,7
2,1465	12,2	-9,1
2,147	-0,5	-11,1
2,1475	-10,8	-12,7
2,148	-17,3	-14,0
2,1485	-19,5	-14,7
2,149	-17,2	-14,0
2,1495	-11,2	-11,7
2,15	-3,0	-8,3
2,1505	5,8	-4,6
2,151	13,7	-1,4
2,1515	19,6	1,0
2,152	23,0	2,4
2,1525	24,0	2,8
2,153	23,6	2,4
2,1535	22,2	1,6
2,154	19,8	1,1
2,1545	16,6	1,3
2,155	12,2	2,2
2,1555	7,0	3,7
2,156	2,7	5,1
2,1565	2,3	5,9
2,157	8,6	6,0
2,1575	21,0	5,9
2,158	35,2	5,6
2,1585	45,8	4,6
2,159	49,7	2,4
2,1595	46,9	-1,3
2,16	39,4	-6,1
2,1605	30,1	-11,2
2,161	22,0	-15,5
2,1615	17,5	-17,8
2,162	16,7	-18,0
2,1625	17,8	-17,0
2,163	18,1	-15,8
2,1635	15,8	-14,4
2,164	10,5	-12,8
2,1645	3,7	-11,0
2,165	-3,0	-9,2
2,1655	-7,8	-7,7
2,166	-10,0	-6,9
2,1665	-9,6	-6,9
2,167	-7,4	-7,5
2,1675	-4,7	-8,2
2,168	-1,6	-8,5
2,1685	2,1	-8,1
2,169	6,7	-7,1
2,1695	11,9	-5,6
2,17	17,7	-3,8
2,1705	23,5	-2,1
2,171	29,1	-0,4
2,1715	34,1	1,5
2,172	38,1	3,8
2,1725	40,8	6,1
2,173	41,2	7,7
2,1735	38,9	7,8
2,174	34,4	6,1
2,1745	28,5	2,9
2,175	22,6	-1,0
2,1755	17,6	-4,4
2,176	14,1	-6,8
2,1765	12,0	-7,9
2,177	11,4	-7,9
2,1775	12,0	-6,8
2,178	13,1	-5,3
2,1785	13,9	-3,6
2,179	13,7	-2,4
2,1795	12,2	-2,0
2,18	9,8	-2,3
2,1805	7,1	-3,2
2,181	3,8	-4,4
2,1815	-0,5	-5,4
2,182	-6,0	-5,9
2,1825	-11,9	-5,4
2,183	-16,9	-4,2
2,1835	-20,3	-2,7
2,184	-22,0	-1,4
2,1845	-22,7	-0,7
2,185	-23,1	-0,5
2,1855	-23,3	-0,8
2,186	-22,7	-1,6
2,1865	-20,3	-2,3
2,187	-16,2	-2,8
2,1875	-10,8	-2,7
2,188	-5,8	-2,0
2,1885	-2,2	-1,0
2,189	0,1	0,3
2,1895	2,2	1,8
2,19	5,2	3,4
2,1905	9,8	4,8
2,191	15,4	5,9
2,1915	20,9	6,5
2,192	24,3	6,5
2,1925	24,3	6,1
2,193	22,2	5,7
2,1935	19,9	5,8
2,194	19,1	6,3
2,1945	19,8	6,9
2,195	21,1	7,3
2,1955	21,7	7,1
2,196	20,6	6,3
2,1965	18,2	4,6
2,197	15,9	2,1
2,1975	14,6	-1,0
2,198	14,3	-3,9
2,1985	13,8	-6,1
2,199	12,9	-7,3
2,1995	12,4	-7,2
2,2	13,1	-6,4
2,2005	15,3	-5,5
2,201	18,0	-4,8
2,2015	20,3	-4,4
2,202	22,1	-4,0
2,2025	23,6	-3,4
2,203	24,8	-3,1
2,2035	24,9	-3,1
2,204	23,8	-3,3
2,2045	21,7	-3,5
2,205	19,1	-3,2
2,2055	15,4	-2,5
2,206	8,2	-1,5
2,2065	-3,7	-0,1
2,207	-19,0	1,8
2,2075	-34,4	3,7
2,208	-46,4	5,6
2,2085	-52,8	7,3
2,209	-53,3	8,7
2,2095	-48,9	10,0
2,21	-41,5	10,7
2,2105	-32,1	10,4
2,211	-21,0	8,8
2,2115	-8,3	6,1
2,212	5,4	2,7
2,2125	18,8	-0,7
2,213	30,2	-3,3
2,2135	39,0	-4,9
2,214	45,0	-5,6
2,2145	47,9	-5,7
2,215	47,5	-5,9
2,2155	43,3	-6,5
2,216	34,3	-7,2
2,2165	19,2	-7,3
2,217	-1,3	-6,6
2,2175	-22,1	-5,5
2,218	-37,2	-4,7
2,2185	-44,0	-4,3
2,219	-43,8	-3,6
2,2195	-39,6	-2,3
2,22	-32,9	-0,4
2,2205	-24,1	1,8
2,221	-12,6	4,6
2,2215	1,3	7,8
2,222	16,5	11,1
2,2225	31,6	13,7
2,223	45,1	15,3
2,2235	56,3	15,7
2,224	64,5	15,5
2,2245	70,0	15,0
2,225	72,9	14,9
2,2255	73,4	15,1
2,226	71,9	15,3
2,2265	68,9	14,8
2,227	64,5	13,1
2,2275	58,3	10,1
2,228	50,2	6,1
2,2285	40,8	1,9
2,229	31,5	-2,0
2,2295	23,5	-5,2
2,23	17,5	-7,8
2,2305	13,2	-10,5
2,231	8,9	-13,6
2,2315	3,6	-16,8
2,232	-2,5	-19,0
2,2325	-8,5	-19,9
2,233	-13,4	-19,4
2,2335	-16,8	-18,1
2,234	-18,7	-16,8
2,2345	-19,2	-16,2
2,235	-18,4	-16,3
2,2355	-16,5	-16,6
2,236	-13,8	-16,6
2,2365	-10,5	-16,1
2,237	-6,8	-15,0
2,2375	-2,2	-13,3
2,238	2,8	-11,4
2,2385	7,4	-9,4
2,239	10,7	-7,6
2,2395	12,6	-6,0
2,24	13,5	-4,5
2,2405	13,6	-3,4
2,241	13,0	-2,8
2,2415	12,3	-2,5
2,242	12,2	-2,2
2,2425	12,9	-1,2
2,243	13,9	0,6
2,2435	13,3	2,9
2,244	10,0	4,9
2,2445	4,0	6,0
2,245	-3,1	5,8
2,2455	-9,4	4,7
2,246	-13,5	3,4
2,2465	-14,9	2,4
2,247	-14,4	1,6
2,2475	-13,2	0,3
2,248	-11,9	-1,8
2,2485	-10,1	-3,8
2,249	-7,6	-4,8
2,2495	-4,3	-4,0
2,25	-0,7	-2,0
2,2505	2,9	0,0
2,251	5,2	1,1
2,2515	3,7	1,2
2,252	-3,8	0,7
2,2525	-16,5	0,1
2,253	-30,2	-0,5
2,2535	-39,7	-0,8
2,254	-42,4	-0,8
2,2545	-39,6	-0,2
2,255	-34,4	0,8
2,2555	-28,9	1,8
2,256	-23,1	2,2
2,2565	-16,7	1,7
2,257	-10,4	0,1
2,2575	-4,8	-2,4
2,258	-0,0	-5,2
2,2585	5,1	-7,2
2,259	11,5	-7,4
2,2595	19,6	-5,8
2,26	28,2	-3,0
2,2605	36,4	0,3
2,261	43,7	3,4
2,2615	49,8	5,8
2,262	54,3	7,2
2,2625	57,0	7,3
2,263	59,0	6,1
2,2635	61,3	4,0
2,264	63,6	1,6
2,2645	64,6	-0,2
2,265	63,2	-1,0
2,2655	59,3	-1,3
2,266	52,5	-1,5
2,2665	42,6	-2,3
2,267	30,2	-3,8
2,2675	17,3	-5,9
2,268	6,5	-8,5
2,2685	-0,8	-11,2
2,269	-4,3	-13,2
2,2695	-4,5	-14,2
2,27	-2,5	-13,8
2,2705	0,7	-12,5
2,271	4,5	-10,6
2,2715	8,5	-8,7
2,272	12,6	-6,9
2,2725	16,8	-5,7
2,273	20,9	-4,9
2,2735	24,8	-4,5
2,274	28,0	-4,4
2,2745	30,2	-4,3
2,275	31,2	-4,0
2,2755	31,1	-3,1
2,276	30,8	-1,6
2,2765	31,1	0,6
2,277	32,5	3,2
2,2775	34,9	5,7
2,278	37,0	7,7
2,2785	37,8	8,9
2,279	36,8	9,2
2,2795	34,3	8,7
2,28	31,0	7,9
2,2805	27,7	6,9
2,281	24,2	5,9
2,2815	20,6	4,8
2,282	17,3	3,1
2,2825	14,2	0,8
2,283	11,6	-1,9
2,2835	10,1	-4,7
2,284	10,0	-7,0
2,2845	10,8	-8,5
2,285	11,3	-9,3
2,2855	10,8	-9,7
2,286	9,1	-10,0
2,2865	6,1	-10,2
2,287	1,8	-10,2
2,2875	-3,4	-10,1
2,288	-8,9	-9,7
2,2885	-13,4	-9,1
2,289	-15,9	-8,3
2,2895	-16,2	-7,3
2,29	-14,5	-6,1
2,2905	-11,5	-4,8
2,291	-8,0	-3,4
2,2915	-4,0	-1,9
2,292	0,6	-0,2
2,2925	6,2	1,8
2,293	11,7	3,6
2,2935	15,3	4,8
2,294	15,8	5,2
2,2945	13,5	5,0
2,295	10,3	4,8
2,2955	7,6	4,7
2,296	5,7	4,8
2,2965	3,7	4,3
2,297	-0,0	3,3
2,2975	-7,3	2,2
2,298	-18,7	1,6
2,2985	-32,2	1,5
2,299	-44,5	1,6
2,2995	-52,6	1,3
2,3	-55,4	0,5
2,3005	-53,2	-0,2
2,301	-46,5	-0,0
2,3015	-35,8	0,9
2,302	-22,0	2,4
2,3025	-7,2	4,3
2,303	6,8	6,3
2,3035	18,5	8,7
2,304	27,4	11,1
2,3045	33,5	13,5
2,305	37,1	15,4
2,3055	38,9	16,4
2,306	39,2	15,8
2,3065	37,3	14,0
2,307	32,4	11,8
2,3075	24,6	9,8
2,308	16,4	8,4
2,3085	11,3	7,1
2,309	11,8	5,6
2,3095	17,0	4,0
2,31	23,2	2,6
2,3105	25,2	1,6
2,311	19,8	1,1
2,3115	7,9	0,7
2,312	-6,4	0,3
2,3125	-18,8	-0,3
2,313	-26,7	-1,7
2,3135	-29,3	-3,8
2,314	-27,4	-5,8
2,3145	-22,3	-6,8
2,315	-16,0	-6,8
2,3155	-9,5	-6,0
2,316	-3,0	-4,9
2,3165	3,9	-3,7
2,317	11,4	-2,4
2,3175	19,2	-0,9
2,318	27,1	0,5
2,3185	35,0	1,8
2,319	42,5	2,8
2,3195	49,4	3,8
2,32	55,3	4,9
2,3205	60,3	6,3
2,321	63,4	7,5
2,3215	64,0	8,3
2,322	61,7	8,5
2,3225	57,2	8,2
2,323	52,2	7,4
2,3235	48,4	6,8
2,324	46,5	6,7
2,3245	46,3	7,3
2,325	46,8	8,3
2,3255	46,7	9,0
2,326	43,6	9,1
2,3265	35,8	8,6
2,327	23,3	7,7
2,3275	8,4	7,1
2,328	-5,8	7,1
2,3285	-16,7	7,4
2,329	-23,0	7,9
2,3295	-24,9	8,3
2,33	-23,4	8,3
2,3305	-20,7	7,3
2,331	-18,9	4,6
2,3315	-18,6	-0,2
2,332	-18,9	-6,6
2,3325	-18,3	-13,4
2,333	-16,0	-18,8
2,3335	-11,9	-21,5
2,334	-6,5	-21,4
2,3345	-1,4	-19,7
2,335	1,3	-17,7
2,3355	-0,1	-16,2
2,336	-5,1	-15,3
2,3365	-11,1	-14,6
2,337	-15,3	-13,8
2,3375	-16,3	-12,4
2,338	-14,9	-10,4
2,3385	-11,5	-7,9
2,339	-5,9	-5,3
2,3395	2,3	-3,1
2,34	12,1	-1,6
2,3405	21,2	-1,0
2,341	27,8	-1,3
2,3415	31,8	-2,0
2,342	34,1	-2,3
2,3425	36,3	-1,6
2,343	38,8	0,0
2,3435	41,8	2,0
2,344	44,8	3,8
2,3445	47,8	4,9
2,345	50,6	5,0
2,3455	52,5	4,1
2,346	53,1	2,0
2,3465	52,2	-0,7
2,347	50,2	-3,2
2,3475	47,6	-4,7
2,348	44,6	-4,7
2,3485	41,4	-3,5
2,349	38,0	-1,8
2,3495	34,7	-0,4
2,35	31,5	0,2
2,3505	28,3	-0,5
2,351	25,3	-2,3
2,3515	22,6	-4,5
2,352	20,8	-6,2
2,3525	20,1	-6,8
2,353	20,2	-6,3
2,3535	20,2	-5,2
2,354	19,6	-3,8
2,3545	18,5	-2,9
2,355	17,5	-2,4
2,3555	16,8	-2,2
2,356	16,5	-1,9
2,3565	16,2	-1,3
2,357	15,3	-0,6
2,3575	13,4	0,1
2,358	10,5	0,5
2,3585	7,5	0,5
2,359	5,6	0,1
2,3595	6,3	-0,2
2,36	9,5	0,2
2,3605	13,9	1,1
2,361	17,6	1,9
2,3615	19,2	2,0
2,362	18,8	1,5
2,3625	16,8	0,6
2,363	13,3	-0,6
2,3635	6,8	-1,8
2,364	-3,4	-3,0
2,3645	-16,5	-3,9
2,365	-29,6	-4,6
2,3655	-39,0	-5,1
2,366	-43,0	-5,5
2,3665	-41,4	-5,8
2,367	-35,4	-6,1
2,3675	-26,1	-6,5
2,368	-14,7	-6,8
2,3685	-1,9	-6,9
2,369	11,8	-6,5
2,3695	25,2	-5,9
2,37	36,4	-5,3
2,3705	44,1	-4,8
2,371	48,4	-4,1
2,3715	50,4	-2,9
2,372	50,8	-1,3
2,3725	49,3	0,4
2,373	44,9	2,0
2,3735	37,6	3,6
2,374	28,3	5,2
2,3745	18,6	6,7
2,375	10,7	8,0
2,3755	6,3	9,4
2,376	5,7	10,9
2,3765	8,0	12,6
2,377	12,0	14,1
2,3775	16,8	15,0
2,378	21,3	14,8
2,3785	24,7	13,6
2,379	26,6	11,7
2,3795	27,1	9,1
2,38	26,7	6,1
2,3805	26,8	3,5
2,381	29,0	2,2
2,3815	33,9	2,6
2,382	39,9	4,3
2,3825	44,7	5,8
2,383	46,6	6,3
2,3835	45,4	5,2
2,384	41,8	2,7
2,3845	37,5	-0,0
2,385	34,0	-2,5
2,3855	31,7	-4,6
2,386	29,4	-6,7
2,3865	26,0	-8,8
2,387	21,6	-10,6
2,3875	17,5	-11,5
2,388	14,9	-11,3
2,3885	14,0	-9,9
2,389	14,5	-8,0
2,3895	15,8	-5,8
2,39	17,9	-3,7
2,3905	20,2	-1,8
2,391	20,7	-0,2
2,3915	17,7	1,2
2,392	11,2	2,5
2,3925	3,0	3,7
2,393	-3,7	4,7
2,3935	-7,0	5,5
2,394	-6,5	6,1
2,3945	-3,0	6,4
2,395	2,0	6,4
2,3955	7,1	6,2
2,396	10,8	5,7
2,3965	11,4	4,7
2,397	9,1	3,1
2,3975	5,6	0,9
2,398	3,3	-1,3
2,3985	3,2	-2,8
2,399	4,5	-3,8
2,3995	6,6	-4,2
2,4	8,9	-4,5
2,4005	11,0	-5,0
2,401	11,3	-5,6
2,4015	8,1	-6,2
2,402	2,1	-6,6
2,4025	-4,0	-7,1
2,403	-7,3	-7,6
2,4035	-7,3	-7,9
2,404	-4,8	-7,3
2,4045	-0,7	-5,7
2,405	4,0	-3,3
2,4055	8,1	-0,8
2,406	10,5	0,8
2,4065	10,8	1,3
2,407	9,8	0,9
2,4075	8,6	0,1
2,408	7,3	-0,8
2,4085	4,9	-1,3
2,409	0,3	-1,6
2,4095	-6,7	-1,4
2,41	-14,4	-0,9
2,4105	-22,0	-0,2
2,411	-28,4	0,9
2,4115	-32,7	2,6
2,412	-33,5	5,0
2,4125	-30,0	8,1
2,413	-22,3	10,7
2,4135	-11,4	12,3
2,414	1,7	12,6
2,4145	16,1	12,0
2,415	30,1	11,1
2,4155	41,9	10,1
2,416	49,5	9,2
2,4165	52,3	8,9
2,417	51,1	8,9
2,4175	47,9	9,3
2,418	44,9	9,7
2,4185	42,2	10,1
2,419	37,9	10,2
2,4195	30,3	9,6
2,42	19,9	8,4
2,4205	9,8	6,2
2,421	2,1	2,8
2,4215	-2,9	-1,8
2,422	-6,2	-6,8
2,4225	-8,3	-11,0
2,423	-9,2	-13,5
2,4235	-8,9	-14,0
2,424	-7,4	-12,8
2,4245	-5,2	-10,8
2,425	-2,7	-8,6
2,4255	0,2	-6,4
2,426	3,8	-4,3
2,4265	8,1	-2,4
2,427	13,2	-1,0
2,4275	18,0	-0,2
2,428	21,5	0,2
2,4285	23,3	0,4
2,429	24,3	0,9
2,4295	26,5	1,9
2,43	30,7	3,6
2,4305	36,1	5,8
2,431	40,7	7,4
2,4315	42,8	7,9
2,432	42,0	7,2
2,4325	39,3	6,1
2,433	35,6	5,2
2,4335	31,8	4,6
2,434	28,4	4,2
2,4345	25,6	3,6
2,435	23,6	3,2
2,4355	22,2	3,2
2,436	21,2	3,8
2,4365	19,8	4,6
2,437	17,7	5,2
2,4375	14,9	5,2
2,438	12,3	4,8
2,4385	10,5	4,2
2,439	9,7	3,7
2,4395	9,6	3,4
2,44	9,8	3,4
2,4405	10,1	3,9
2,441	10,1	4,7
2,4415	9,2	5,8
2,442	6,6	7,1
2,4425	2,9	8,6
2,443	-0,8	10,2
2,4435	-2,6	11,8
2,444	-1,9	13,3
2,4445	0,7	14,5
2,445	3,9	15,0
2,4455	6,8	14,8
2,446	8,9	13,8
2,4465	10,7	12,4
2,447	12,8	10,9
2,4475	16,0	10,0
2,448	19,8	9,7
2,4485	23,3	9,4
2,449	25,4	8,9
2,4495	26,5	8,3
2,45	27,7	7,4
2,4505	30,1	6,8
2,451	33,3	6,7
2,4515	35,9	7,0
2,452	36,4	7,2
2,4525	34,4	6,6
2,453	31,0	5,0
2,4535	27,1	2,8
2,454	22,5	0,9
2,4545	16,7	-0,3
2,455	9,7	-1,0
2,4555	2,6	-1,5
2,456	-3,3	-2,3
2,4565	-7,8	-3,3
2,457	-10,8	-4,3
2,4575	-12,1	-4,7
2,458	-10,8	-4,6
2,4585	-6,7	-4,1
2,459	-1,2	-3,1
2,4595	3,9	-2,3
2,46	7,4	-2,1
2,4605	9,2	-2,7
2,461	10,3	-3,5
2,4615	11,8	-3,7
2,462	14,7	-2,8
2,4625	18,8	-0,8
2,463	23,8	1,7
2,4635	29,8	4,3
2,464	35,4	6,9
2,4645	38,6	9,0
2,465	37,8	10,6
2,4655	33,1	11,7
2,466	26,3	12,3
2,4665	19,9	12,6
2,467	15,4	12,6
2,4675	13,1	12,7
2,468	12,7	13,0
2,4685	14,0	13,6
2,469	16,5	14,4
2,4695	18,5	14,9
2,47	18,7	14,2
2,4705	17,1	12,1
2,471	14,8	8,7
2,4715	12,9	5,1
2,472	11,6	2,0
2,4725	10,3	-0,8
2,473	9,2	-3,0
2,4735	8,9	-4,4
2,474	10,3	-4,3
2,4745	13,7	-2,2
2,475	18,8	1,2
2,4755	24,6	5,0
2,476	29,5	8,0
2,4765	31,8	9,6
2,477	31,0	9,4
2,4775	27,6	7,6
2,478	22,9	4,4
2,4785	18,5	0,5
2,479	14,0	-3,3
2,4795	7,3	-6,3
2,48	-3,7	-8,1
2,4805	-18,0	-9,0
2,481	-32,7	-9,4
2,4815	-43,8	-8,9
2,482	-48,9	-7,5
2,4825	-47,4	-5,4
2,483	-40,2	-3,3
2,4835	-29,3	-2,2
2,484	-17,1	-2,5
2,4845	-4,7	-4,1
2,485	7,3	-6,2
2,4855	19,1	-8,0
2,486	30,5	-8,9
2,4865	40,8	-8,9
2,487	49,0	-8,3
2,4875	54,0	-7,3
2,488	54,3	-6,1
2,4885	48,0	-4,5
2,489	35,2	-2,5
2,4895	17,9	-0,3
2,49	-0,3	1,8
2,4905	-16,5	3,3
2,491	-28,3	3,9
2,4915	-34,5	3,8
2,492	-34,4	3,2
2,4925	-28,9	2,2
2,493	-19,7	1,4
2,4935	-9,5	1,4
2,494	-0,2	2,2
2,4945	8,2	3,7
2,495	15,6	5,4
2,4955	22,1	7,1
2,496	27,2	8,7
2,4965	30,8	10,4
2,497	33,3	12,5
2,4975	34,4	15,1
2,498	33,2	18,1
2,4985	28,3	21,2
2,499	19,6	23,7
2,4995	8,9	24,8
2,5	-0,4	24,3
2,5005	-5,6	22,3
2,501	-6,7	19,5
2,5015	-5,6	16,8
2,502	-3,8	14,2
2,5025	-1,5	11,5
2,503	2,3	8,9
2,5035	7,8	6,7
2,504	15,2	5,0
2,5045	24,0	3,4
2,505	33,8	1,4
2,5055	43,3	-1,0
2,506	50,9	-3,3
2,5065	55,4	-4,7
2,507	57,0	-4,9
2,5075	57,3	-4,4
2,508	57,8	-3,6
2,5085	58,6	-2,8
2,509	58,7	-2,3
2,5095	56,9	-1,8
2,51	53,3	-1,3
2,5105	49,6	-0,8
2,511	46,7	-0,4
2,5115	44,7	-0,4
2,512	42,5	-0,7
2,5125	39,7	-1,3
2,513	36,7	-2,4
2,5135	34,3	-3,7
2,514	32,9	-4,6
2,5145	32,2	-4,6
2,515	31,5	-3,6
2,5155	30,4	-2,3
2,516	29,1	-1,2
2,5165	27,8	-0,6
2,517	26,6	-0,7
2,5175	25,3	-1,3
2,518	23,7	-2,4
2,5185	21,8	-3,5
2,519	19,8	-4,3
2,5195	17,9	-4,6
2,52	16,0	-4,1
2,5205	13,9	-3,5
2,521	11,8	-3,0
2,5215	9,9	-2,8
2,522	8,5	-2,4
2,5225	7,6	-1,9
2,523	6,8	-1,5
2,5235	6,1	-1,8
2,524	5,5	-3,0
2,5245	5,2	-4,5
2,525	4,9	-5,4
2,5255	4,4	-5,1
2,526	3,9	-3,5
2,5265	4,5	-0,9
2,527	6,5	1,8
2,5275	9,6	4,2
2,528	13,0	5,8
2,5285	16,3	6,6
2,529	20,1	7,0
2,5295	24,7	7,7
2,53	29,1	8,7
2,5305	31,8	9,7
2,531	31,4	9,9
2,5315	28,3	9,2
2,532	23,5	7,8
2,5325	18,3	6,6
2,533	14,1	6,1
2,5335	11,3	6,3
2,534	9,8	6,7
2,5345	8,7	6,9
2,535	7,8	6,7
2,5355	7,5	6,0
2,536	8,3	5,1
2,5365	10,5	4,3
2,537	13,8	3,6
2,5375	17,7	3,5
2,538	21,8	3,8
2,5385	25,9	4,5
2,539	29,6	5,1
2,5395	32,9	5,6
2,54	35,6	6,0
2,5405	36,7	6,3
2,541	35,2	6,8
2,5415	31,3	7,7
2,542	26,2	9,2
2,5425	21,9	10,9
2,543	19,1	12,6
2,5435	16,7	13,5
2,544	12,8	13,1
2,5445	7,1	11,3
2,545	1,1	8,4
2,5455	-2,9	5,5
2,546	-4,1	3,3
2,5465	-3,8	1,7
2,547	-3,7	0,8
2,5475	-4,9	0,3
2,548	-7,4	0,3
2,5485	-10,0	0,5
2,549	-11,4	0,8
2,5495	-11,1	0,8
2,55	-9,3	0,8
2,5505	-6,5	0,8
2,551	-3,3	1,2
2,5515	0,1	2,0
2,552	3,5	2,8
2,5525	7,3	3,6
2,553	11,7	4,3
2,5535	16,7	5,2
2,554	21,8	6,7
2,5545	26,0	8,7
2,555	29,8	11,2
2,5555	34,5	13,9
2,556	41,0	16,4
2,5565	48,5	18,2
2,557	54,2	18,8
2,5575	55,7	18,1
2,558	53,3	16,3
2,5585	48,9	14,7
2,559	45,3	13,8
2,5595	43,6	13,8
2,56	43,7	14,1
2,5605	44,6	14,3
2,561	44,3	14,3
2,5615	40,8	14,3
2,562	33,7	13,9
2,5625	24,0	12,8
2,563	13,6	10,7
2,5635	4,0	7,9
2,564	-4,3	4,8
2,5645	-10,9	2,4
2,565	-15,8	1,0
2,5655	-19,4	0,4
2,566	-22,5	0,2
2,5665	-24,6	-0,3
2,567	-24,7	-1,0
2,5675	-21,8	-1,1
2,568	-16,2	-0,2
2,5685	-8,9	1,3
2,569	-1,7	2,6
2,5695	4,8	2,8
2,57	10,8	2,1
2,5705	17,3	1,1
2,571	24,9	0,7
2,5715	32,8	1,3
2,572	39,3	2,7
2,5725	42,8	4,5
2,573	42,1	6,0
2,5735	37,1	6,8
2,574	28,6	7,1
2,5745	18,9	7,5
2,575	10,5	8,3
2,5755	4,3	9,1
2,576	-0,4	9,5
2,5765	-4,1	9,3
2,577	-6,3	8,5
2,5775	-6,1	7,6
2,578	-3,4	6,6
2,5785	0,7	6,0
2,579	5,3	5,8
2,5795	9,8	5,7
2,58	14,0	5,5
2,5805	18,0	4,8
2,581	22,0	3,8
2,5815	26,6	2,8
2,582	31,3	2,2
2,5825	35,6	2,0
2,583	38,6	2,4
2,5835	40,7	3,1
2,584	43,1	3,8
2,5845	46,4	4,1
2,585	50,1	3,9
2,5855	53,2	3,3
2,586	54,4	2,3
2,5865	53,4	1,0
2,587	50,1	-0,5
2,5875	44,8	-1,7
2,588	36,6	-2,3
2,5885	25,5	-1,8
2,589	12,8	-0,8
2,5895	1,3	0,8
2,59	-6,3	2,4
2,5905	-9,2	3,8
2,591	-8,5	4,4
2,5915	-6,3	4,0
2,592	-4,2	2,9
2,5925	-3,1	1,8
2,593	-3,3	1,6
2,5935	-4,4	2,5
2,594	-5,5	4,3
2,5945	-5,9	6,4
2,595	-5,1	8,1
2,5955	-3,1	8,8
2,596	-0,4	8,6
2,5965	2,4	7,3
2,597	4,7	5,7
2,5975	5,1	4,6
2,598	1,8	4,7
2,5985	-5,8	6,1
2,599	-15,4	7,9
2,5995	-22,5	8,5
2,6	-24,2	7,2
2,6005	-20,8	4,3
2,601	-15,1	1,4
2,6015	-9,1	-0,1
2,602	-3,8	0,0
2,6025	0,1	1,2
2,603	1,9	2,4
2,6035	1,8	2,9
2,604	1,2	2,4
2,6045	2,0	1,1
2,605	4,8	-0,4
2,6055	9,7	-1,3
2,606	15,6	-1,3
2,6065	21,9	-0,3
2,607	28,8	1,5
2,6075	36,8	3,7
2,608	45,1	5,8
2,6085	52,7	7,3
2,609	58,3	8,2
2,6095	60,8	8,8
2,61	60,3	9,2
2,6105	57,8	9,4
2,611	55,3	9,6
2,6115	54,2	10,0
2,612	54,6	10,5
2,6125	55,4	11,1
2,613	54,8	11,2
2,6135	51,6	10,5
2,614	45,9	8,7
2,6145	38,5	6,0
2,615	31,0	3,1
2,6155	25,0	0,6
2,616	21,6	-1,0
2,6165	20,8	-1,8
2,617	21,8	-2,6
2,6175	23,0	-3,6
2,618	23,8	-4,6
2,6185	24,0	-5,3
2,619	23,6	-5,5
2,6195	22,2	-5,2
2,62	19,8	-4,3
2,6205	17,3	-2,9
2,621	15,6	-1,3
2,6215	15,3	0,2
2,622	15,6	1,2
2,6225	15,1	1,7
2,623	13,5	1,6
2,6235	10,8	1,2
2,624	7,2	0,4
2,6245	3,7	-0,6
2,625	1,0	-1,3
2,6255	-0,2	-1,4
2,626	0,3	-0,7
2,6265	2,0	0,6
2,627	5,1	2,3
2,6275	9,1	4,3
2,628	13,1	6,7
2,6285	15,8	9,1
2,629	16,9	11,2
2,6295	17,1	12,4
2,63	17,0	12,7
2,6305	17,2	12,3
2,631	18,5	11,9
2,6315	21,9	11,8
2,632	27,6	12,3
2,6325	34,1	13,1
2,633	39,0	13,6
2,6335	41,1	13,6
2,634	40,4	12,9
2,6345	38,5	11,8
2,635	36,4	10,4
2,6355	34,7	8,9
2,636	33,1	7,2
2,6365	31,2	5,2
2,637	29,0	2,9
2,6375	26,9	1,0
2,638	25,0	-0,2
2,6385	23,3	-0,1
2,639	21,4	0,9
2,6395	19,8	2,5
2,64	19,2	4,1
2,6405	19,8	5,3
2,641	21,1	6,1
2,6415	22,3	6,4
2,642	22,9	6,3
2,6425	22,6	5,8
2,643	21,4	5,0
2,6435	18,9	4,3
2,644	14,8	3,8
2,6445	9,7	3,5
2,645	4,0	3,2
2,6455	-2,1	2,3
2,646	-8,8	0,2
2,6465	-16,1	-2,9
2,647	-22,8	-6,2
2,6475	-27,6	-8,3
2,648	-29,5	-8,6
2,6485	-28,0	-7,3
2,649	-23,9	-5,2
2,6495	-18,3	-3,1
2,65	-13,0	-1,6
2,6505	-10,7	-1,1
2,651	-13,0	-1,5
2,6515	-19,3	-2,3
2,652	-26,3	-2,9
2,6525	-30,6	-2,8
2,653	-30,2	-2,1
2,6535	-25,0	-1,0
2,654	-15,8	0,5
2,6545	-4,2	2,1
2,655	7,9	3,9
2,6555	18,9	6,0
2,656	28,1	8,2
2,6565	36,2	9,8
2,657	44,3	10,7
2,6575	52,9	10,9
2,658	61,4	10,7
2,6585	68,7	10,5
2,659	73,9	10,9
2,6595	76,8	12,1
2,66	77,3	13,8
2,6605	74,8	15,5
2,661	69,1	16,1
2,6615	61,4	15,2
2,662	53,4	12,9
2,6625	46,9	9,4
2,663	42,4	5,1
2,6635	39,1	0,7
2,664	36,2	-3,1
2,6645	33,4	-5,8
2,665	30,8	-7,0
2,6655	28,3	-6,9
2,666	25,9	-5,9
2,6665	23,3	-4,5
2,667	19,9	-3,6
2,6675	15,0	-3,5
2,668	7,5	-4,3
2,6685	-2,4	-5,2
2,669	-13,0	-5,7
2,6695	-22,5	-5,6
2,67	-31,3	-4,9
2,6705	-41,6	-3,5
2,671	-55,0	-1,6
2,6715	-69,9	0,6
2,672	-82,3	3,0
2,6725	-88,0	5,3
2,673	-85,0	7,6
2,6735	-73,5	9,8
2,674	-55,3	11,6
2,6745	-33,2	13,0
2,675	-9,7	14,0
2,6755	12,8	14,8
2,676	32,4	15,4
2,6765	47,7	15,6
2,677	58,8	15,4
2,6775	67,0	15,2
2,678	73,6	15,3
2,6785	79,1	15,6
2,679	83,1	15,8
2,6795	84,6	15,5
2,68	82,6	14,8
2,6805	76,6	13,8
2,681	68,2	13,0
2,6815	60,6	12,0
2,682	56,7	10,3
2,6825	56,2	7,4
2,683	56,4	3,8
2,6835	54,7	-0,1
2,684	50,2	-3,6
2,6845	44,0	-6,5
2,685	38,3	-8,6
2,6855	34,6	-9,7
2,686	33,1	-9,6
2,6865	32,2	-9,0
2,687	30,3	-8,3
2,6875	27,0	-7,8
2,688	23,1	-7,4
2,6885	19,7	-6,8
2,689	17,4	-5,9
2,6895	16,1	-4,5
2,69	15,7	-2,7
2,6905	16,3	-0,6
2,691	17,6	1,8
2,6915	19,3	4,6
2,692	20,8	7,5
2,6925	21,4	10,2
2,693	20,8	12,4
2,6935	19,3	13,8
2,694	17,5	14,0
2,6945	16,1	13,1
2,695	16,1	11,4
2,6955	17,9	9,3
2,696	22,1	7,1
2,6965	28,0	4,8
2,697	34,5	2,8
2,6975	40,5	1,2
2,698	44,8	0,1
2,6985	47,2	-0,4
2,699	47,3	-0,6
2,6995	45,3	-0,5
2,7	40,8	-0,4
2,7005	33,7	-0,9
2,701	24,3	-2,5
2,7015	13,9	-5,3
2,702	4,7	-8,3
2,7025	-1,3	-10,4
2,703	-3,5	-11,0
2,7035	-2,5	-10,1
2,704	0,6	-8,3
2,7045	4,3	-6,4
2,705	7,6	-4,9
2,7055	10,3	-4,3
2,706	12,4	-4,6
2,7065	14,6	-5,4
2,707	17,1	-6,0
2,7075	20,4	-5,7
2,708	24,1	-4,4
2,7085	27,8	-2,4
2,709	30,7	-0,1
2,7095	32,2	1,8
2,71	32,3	3,1
2,7105	30,8	3,4
2,711	27,9	3,2
2,7115	24,1	2,8
2,712	19,1	2,3
2,7125	12,7	1,2
2,713	5,2	-0,3
2,7135	-1,3	-1,8
2,714	-4,7	-2,5
2,7145	-4,0	-1,7
2,715	-0,3	0,4
2,7155	4,7	3,5
2,716	9,5	6,6
2,7165	13,3	9,1
2,717	16,1	10,3
2,7175	18,1	10,4
2,718	19,0	9,6
2,7185	18,1	8,2
2,719	15,3	6,5
2,7195	11,9	4,4
2,72	9,4	2,1
2,7205	8,8	-0,3
2,721	9,9	-2,4
2,7215	12,8	-3,7
2,722	18,1	-3,8
2,7225	25,1	-2,9
2,723	30,5	-1,7
2,7235	30,1	-0,5
2,724	22,2	0,1
2,7245	9,8	0,2
2,725	-3,3	-0,2
2,7255	-14,9	-1,1
2,726	-24,2	-2,2
2,7265	-30,6	-2,9
2,727	-33,5	-2,4
2,7275	-33,3	-0,7
2,728	-31,1	1,7
2,7285	-28,2	3,7
2,729	-25,1	4,7
2,7295	-21,7	4,6
2,73	-17,2	4,0
2,7305	-11,2	3,7
2,731	-4,4	3,9
2,7315	1,3	4,7
2,732	4,1	5,8
2,7325	4,1	6,8
2,733	2,8	7,6
2,7335	2,2	8,0
2,734	2,4	7,9
2,7345	2,9	7,6
2,735	3,4	7,5
2,7355	3,3	7,7
2,736	2,4	7,8
2,7365	0,1	7,3
2,737	-2,9	5,8
2,7375	-5,5	3,4
2,738	-6,9	0,6
2,7385	-7,6	-1,8
2,739	-8,3	-3,2
2,7395	-9,3	-3,3
2,74	-10,0	-2,4
2,7405	-10,2	-1,3
2,741	-10,7	-0,8
2,7415	-12,7	-0,8
2,742	-17,0	-0,4
2,7425	-23,0	1,0
2,743	-28,6	3,1
2,7435	-31,0	4,8
2,744	-28,9	5,8
2,7445	-23,1	6,3
2,745	-15,9	6,8
2,7455	-8,6	7,7
2,746	-1,4	8,6
2,7465	5,3	9,0
2,747	10,5	8,4
2,7475	13,6	6,4
2,748	15,7	3,4
2,7485	19,2	0,1
2,749	25,7	-2,8
2,7495	34,2	-5,0
2,75	42,2	-7,1
2,7505	47,3	-9,3
2,751	49,2	-11,2
2,7515	47,9	-12,4
2,752	43,7	-13,2
2,7525	37,9	-13,7
2,753	32,4	-14,1
2,7535	28,3	-14,2
2,754	25,6	-13,5
2,7545	23,9	-12,3
2,755	22,4	-10,9
2,7555	20,8	-9,9
2,756	19,2	-9,4
2,7565	17,9	-9,6
2,757	17,3	-10,1
2,7575	17,2	-10,4
2,758	16,8	-9,9
2,7585	15,4	-8,2
2,759	12,6	-5,6
2,7595	8,6	-2,8
2,76	4,1	-0,5
2,7605	-0,1	1,0
2,761	-3,8	1,7
2,7615	-6,6	1,4
2,762	-8,7	0,7
2,7625	-10,4	0,1
2,763	-12,2	-0,3
2,7635	-14,8	-0,1
2,764	-19,0	0,3
2,7645	-25,1	0,7
2,765	-32,4	1,2
2,7655	-40,1	1,8
2,766	-47,8	2,6
2,7665	-55,9	3,4
2,767	-64,6	4,0
2,7675	-73,2	4,3
2,768	-80,0	4,1
2,7685	-82,7	3,2
2,769	-80,0	1,8
2,7695	-72,0	0,4
2,77	-60,0	-0,3
2,7705	-45,7	-0,2
2,771	-30,4	0,9
2,7715	-15,1	2,9
2,772	0,1	5,1
2,7725	14,6	7,2
2,773	27,5	8,8
2,7735	37,8	9,8
2,774	45,1	10,9
2,7745	49,5	12,1
2,775	51,8	13,6
2,7755	52,3	14,9
2,776	51,1	15,8
2,7765	47,6	16,3
2,777	41,3	16,1
2,7775	33,7	15,0
2,778	26,8	12,7
2,7785	21,7	8,8
2,779	17,3	3,7
2,7795	11,8	-2,0
2,78	5,0	-7,7
2,7805	-1,9	-12,8
2,781	-6,4	-16,8
2,7815	-6,7	-19,3
2,782	-3,0	-20,4
2,7825	1,9	-20,6
2,783	5,6	-20,6
2,7835	6,8	-20,4
2,784	6,3	-19,9
2,7845	4,7	-18,7
2,785	2,5	-17,0
2,7855	0,3	-15,7
2,786	-2,2	-15,0
2,7865	-4,8	-14,9
2,787	-7,8	-14,7
2,7875	-11,3	-14,1
2,788	-14,3	-12,8
2,7885	-16,3	-10,8
2,789	-17,6	-8,4
2,7895	-19,4	-6,0
2,79	-23,0	-3,8
2,7905	-27,6	-1,9
2,791	-31,3	-0,6
2,7915	-32,6	0,4
2,792	-31,5	1,4
2,7925	-29,0	2,2
2,793	-26,8	2,2
2,7935	-26,8	0,9
2,794	-29,4	-1,5
2,7945	-33,3	-4,3
2,795	-35,5	-6,5
2,7955	-33,7	-7,5
2,796	-27,7	-7,2
2,7965	-18,8	-6,4
2,797	-8,7	-5,6
2,7975	1,2	-5,3
2,798	9,3	-5,1
2,7985	14,8	-4,9
2,799	17,5	-4,3
2,7995	18,3	-3,2
2,8	18,4	-2,0
2,8005	19,2	-0,9
2,801	21,0	-0,1
2,8015	23,3	0,5
2,802	25,0	0,9
2,8025	24,9	1,4
2,803	22,3	1,7
2,8035	18,1	1,6
2,804	13,7	0,9
2,8045	10,0	-0,3
2,805	6,9	-1,7
2,8055	3,5	-3,2
2,806	-0,4	-4,7
2,8065	-4,5	-6,4
2,807	-8,4	-8,2
2,8075	-11,6	-9,8
2,808	-14,1	-11,0
2,8085	-16,6	-11,7
2,809	-18,9	-11,3
2,8095	-20,8	-9,5
2,81	-21,2	-6,5
2,8105	-19,5	-3,2
2,811	-16,0	-0,2
2,8115	-12,1	2,0
2,812	-9,8	2,8
2,8125	-9,9	2,2
2,813	-11,8	0,2
2,8135	-13,8	-2,2
2,814	-14,3	-4,0
2,8145	-12,7	-4,8
2,815	-8,9	-4,8
2,8155	-4,2	-4,5
2,816	-0,2	-4,5
2,8165	2,4	-4,9
2,817	3,6	-5,5
2,8175	4,3	-6,1
2,818	5,7	-6,0
2,8185	8,8	-5,3
2,819	14,1	-4,5
2,8195	20,3	-3,9
2,82	25,4	-3,8
2,8205	27,8	-3,9
2,821	26,3	-4,5
2,8215	20,3	-5,8
2,822	10,4	-7,9
2,8225	-1,2	-10,2
2,823	-12,0	-11,9
2,8235	-19,7	-12,3
2,824	-23,1	-11,2
2,8245	-22,5	-9,1
2,825	-19,4	-6,9
2,8255	-15,6	-5,2
2,826	-12,3	-4,3
2,8265	-10,3	-4,0
2,827	-10,6	-4,3
2,8275	-15,0	-4,9
2,828	-24,6	-5,7
2,8285	-38,7	-6,7
2,829	-54,0	-7,6
2,8295	-66,7	-8,2
2,83	-73,8	-8,2
2,8305	-75,0	-7,5
2,831	-72,2	-6,8
2,8315	-67,9	-6,4
2,832	-62,8	-6,2
2,8325	-55,9	-5,7
2,833	-45,4	-4,7
2,8335	-30,3	-3,7
2,834	-12,2	-3,1
2,8345	5,7	-3,2
2,835	19,5	-3,8
2,8355	27,2	-4,6
2,836	29,8	-5,4
2,8365	30,0	-5,7
2,837	30,1	-5,0
2,8375	31,0	-3,5
2,838	32,2	-1,4
2,8385	33,0	0,3
2,839	33,1	1,0
2,8395	32,8	0,5
2,84	32,7	-1,0
2,8405	32,5	-3,4
2,841	31,3	-6,5
2,8415	28,4	-9,3
2,842	23,5	-11,3
2,8425	16,5	-12,0
2,843	7,3	-11,4
2,8435	-4,7	-10,2
2,844	-18,7	-8,3
2,8445	-32,6	-6,0
2,845	-44,1	-3,8
2,8455	-51,9	-2,4
2,846	-56,1	-2,4
2,8465	-56,7	-3,7
2,847	-53,7	-5,4
2,8475	-47,2	-6,9
2,848	-37,8	-7,4
2,8485	-26,5	-7,0
2,849	-14,5	-5,6
2,8495	-3,1	-3,6
2,85	6,1	-1,7
2,8505	11,2	-0,6
2,851	11,8	-0,7
2,8515	9,2	-1,5
2,852	5,7	-2,6
2,8525	3,4	-3,2
2,853	3,1	-3,1
2,8535	4,2	-2,4
2,854	5,8	-1,0
2,8545	7,2	0,7
2,855	8,9	2,0
2,8555	10,9	2,4
2,856	13,0	1,6
2,8565	14,5	0,2
2,857	15,1	-1,4
2,8575	14,8	-2,8
2,858	14,1	-3,7
2,8585	13,4	-3,9
2,859	13,0	-3,4
2,8595	12,6	-2,3
2,86	11,9	-1,3
2,8605	10,6	-1,0
2,861	8,4	-1,4
2,8615	5,3	-2,7
2,862	1,5	-4,5
2,8625	-2,1	-6,5
2,863	-4,5	-8,3
2,8635	-5,3	-9,6
2,864	-5,3	-10,5
2,8645	-5,7	-11,5
2,865	-6,9	-12,6
2,8655	-8,6	-13,4
2,866	-9,8	-13,5
2,8665	-10,1	-13,0
2,867	-9,7	-11,9
2,8675	-8,8	-10,8
2,868	-8,0	-10,3
2,8685	-7,8	-10,5
2,869	-7,7	-11,2
2,8695	-6,8	-11,7
2,87	-4,9	-11,6
2,8705	-3,6	-11,0
2,871	-5,6	-10,3
2,8715	-12,4	-9,7
2,872	-22,9	-9,2
2,8725	-35,3	-8,5
2,873	-48,0	-7,8
2,8735	-60,1	-7,3
2,874	-70,2	-7,2
2,8745	-77,4	-7,2
2,875	-81,6	-6,6
2,8755	-82,2	-5,3
2,876	-78,6	-3,6
2,8765	-70,8	-1,9
2,877	-60,2	-0,4
2,8775	-48,4	0,9
2,878	-36,9	2,0
2,8785	-26,4	2,7
2,879	-17,5	3,2
2,8795	-10,3	3,6
2,88	-3,9	4,3
2,8805	2,4	5,1
2,881	9,0	6,0
2,8815	15,4	7,2
2,882	20,4	8,5
2,8825	23,0	9,7
2,883	22,3	10,4
2,8835	19,3	10,0
2,884	16,6	7,9
2,8845	16,1	4,1
2,885	17,2	-0,7
2,8855	17,6	-5,3
2,886	15,6	-9,1
2,8865	11,3	-12,0
2,887	6,7	-14,0
2,8875	4,5	-14,8
2,888	5,8	-14,3
2,8885	9,5	-13,4
2,889	13,9	-12,6
2,8895	18,1	-12,0
2,89	22,4	-11,3
2,8905	27,2	-10,1
2,891	32,0	-8,6
2,8915	35,1	-7,3
2,892	35,3	-6,5
2,8925	32,5	-6,3
2,893	27,8	-6,8
2,8935	21,9	-7,8
2,894	15,4	-9,2
2,8945	8,6	-10,6
2,895	2,2	-11,8
2,8955	-3,5	-13,2
2,896	-8,7	-14,9
2,8965	-13,6	-16,8
2,897	-18,2	-18,7
2,8975	-22,2	-20,0
2,898	-25,9	-20,6
2,8985	-29,7	-20,3
2,899	-33,3	-19,3
2,8995	-35,8	-17,6
2,9	-36,5	-16,1
2,9005	-35,4	-15,1
2,901	-32,5	-14,7
2,9015	-27,8	-14,4
2,902	-21,8	-13,8
2,9025	-14,8	-12,7
2,903	-7,6	-11,5
2,9035	-1,0	-10,3
2,904	3,9	-9,3
2,9045	6,4	-8,3
2,905	6,3	-7,1
2,9055	2,7	-5,8
2,906	-5,3	-4,5
2,9065	-18,2	-3,1
2,907	-34,3	-1,9
2,9075	-50,2	-1,3
2,908	-62,2	-1,4
2,9085	-68,1	-2,1
2,909	-67,6	-2,8
2,9095	-61,8	-3,2
2,91	-52,6	-2,8
2,9105	-41,3	-1,9
2,911	-28,8	-0,6
2,9115	-15,9	0,7
2,912	-3,5	1,5
2,9125	7,4	1,5
2,913	15,8	0,4
2,9135	21,4	-1,3
2,914	24,6	-3,0
2,9145	25,8	-3,8
2,915	25,6	-3,5
2,9155	24,2	-2,2
2,916	21,6	-0,3
2,9165	18,8	1,5
2,917	17,8	2,5
2,9175	20,8	2,3
2,918	27,4	1,0
2,9185	34,1	-1,3
2,919	36,5	-4,4
2,9195	32,4	-8,3
2,92	23,1	-12,5
2,9205	11,5	-16,3
2,921	0,4	-19,1
2,9215	-8,8	-20,6
2,922	-15,8	-20,7
2,9225	-20,6	-19,5
2,923	-23,7	-17,5
2,9235	-25,9	-15,3
2,924	-28,4	-13,4
2,9245	-31,4	-11,7
2,925	-34,6	-10,2
2,9255	-37,2	-8,6
2,926	-38,1	-7,2
2,9265	-36,5	-6,2
2,927	-32,3	-5,4
2,9275	-25,8	-4,5
2,928	-17,4	-3,1
2,9285	-8,0	-1,3
2,929	1,2	0,4
2,9295	8,1	1,6
2,93	12,3	2,2
2,9305	14,8	2,1
2,931	17,0	1,5
2,9315	19,6	0,7
2,932	21,9	-0,0
2,9325	23,5	-0,4
2,933	25,0	-0,3
2,9335	27,3	0,0
2,934	30,3	0,3
2,9345	32,6	0,0
2,935	32,5	-1,1
2,9355	29,9	-3,5
2,936	25,9	-7,2
2,9365	21,5	-11,9
2,937	17,3	-16,8
2,9375	13,5	-21,2
2,938	10,2	-24,1
2,9385	8,0	-24,9
2,939	6,7	-24,0
2,9395	5,9	-22,0
2,94	5,4	-19,9
2,9405	5,0	-18,3
2,941	4,7	-17,9
2,9415	3,4	-18,5
2,942	-0,8	-19,5
2,9425	-8,9	-19,7
2,943	-20,2	-18,4
2,9435	-31,7	-15,9
2,944	-40,9	-12,6
2,9445	-47,1	-9,3
2,945	-50,8	-6,6
2,9455	-52,9	-4,8
2,946	-52,9	-4,2
2,9465	-50,3	-4,3
2,947	-44,7	-4,8
2,9475	-36,2	-5,2
2,948	-25,8	-5,1
2,9485	-14,9	-4,8
2,949	-4,7	-4,6
2,9495	4,8	-5,1
2,95	14,8	-6,2
2,9505	25,7	-7,8
2,951	36,2	-9,9
2,9515	43,9	-12,4
2,952	47,2	-15,1
2,9525	46,1	-17,3
2,953	41,9	-18,2
2,9535	35,8	-18,1
2,954	29,3	-17,3
2,9545	23,6	-16,4
2,955	19,4	-15,6
2,9555	17,0	-15,0
2,956	15,9	-14,6
2,9565	16,2	-14,6
2,957	17,6	-14,8
2,9575	19,2	-15,4
2,958	19,4	-16,3
2,9585	17,5	-16,9
2,959	14,3	-16,5
2,9595	10,9	-14,7
2,96	7,1	-11,6
2,9605	1,4	-7,7
2,961	-7,1	-3,6
2,9615	-17,5	-0,3
2,962	-28,5	0,8
2,9625	-39,8	-0,5
2,963	-51,1	-3,5
2,9635	-61,2	-6,8
2,964	-67,8	-9,2
2,9645	-68,9	-10,3
2,965	-64,3	-10,6
2,9655	-55,0	-10,3
2,966	-43,2	-9,9
2,9665	-30,3	-9,8
2,967	-17,2	-10,4
2,9675	-4,4	-11,7
2,968	7,1	-13,7
2,9685	16,8	-15,6
2,969	24,3	-16,8
2,9695	29,9	-16,9
2,97	33,4	-16,2
2,9705	34,0	-15,1
2,971	31,5	-14,2
2,9715	26,6	-13,7
2,972	20,8	-13,1
2,9725	14,9	-12,2
2,973	9,3	-10,6
2,9735	5,0	-8,9
2,974	4,0	-7,7
2,9745	6,7	-7,1
2,975	10,2	-6,8
2,9755	10,9	-6,3
2,976	7,7	-5,5
2,9765	1,9	-4,7
2,977	-4,9	-3,9
2,9775	-13,1	-3,4
2,978	-23,6	-3,2
2,9785	-34,7	-3,1
2,979	-43,7	-2,9
2,9795	-48,2	-2,5
2,98	-47,9	-2,4
2,9805	-43,8	-2,7
2,981	-37,6	-3,2
2,9815	-31,2	-3,8
2,982	-25,7	-4,4
2,9825	-21,3	-5,0
2,983	-17,2	-5,7
2,9835	-12,4	-6,4
2,984	-6,9	-6,8
2,9845	-0,8	-6,5
2,985	5,9	-5,2
2,9855	13,6	-3,1
2,986	21,5	-0,9
2,9865	28,2	0,9
2,987	31,9	2,2
2,9875	32,4	3,1
2,988	30,7	3,2
2,9885	28,3	1,8
2,989	26,7	-1,4
2,9895	26,5	-5,7
2,99	27,0	-10,2
2,9905	26,5	-14,3
2,991	23,4	-17,5
2,9915	18,0	-19,7
2,992	12,2	-20,7
2,9925	8,3	-20,6
2,993	7,0	-19,5
2,9935	7,9	-17,7
2,994	10,0	-15,4
2,9945	13,2	-13,5
2,995	17,0	-12,5
2,9955	20,4	-12,5
2,996	22,2	-13,1
2,9965	21,9	-13,8
2,997	20,1	-14,6
2,9975	17,7	-15,3
2,998	15,4	-15,8
2,9985	13,7	-15,5
2,999	12,8	-14,3
2,9995	12,5	-12,9
3	12,6	-11,6
3,0005	13,0	-10,9
3,001	13,4	-11,1
3,0015	12,5	-12,4
3,002	8,9	-14,9
3,0025	2,3	-17,8
3,003	-5,9	-20,1
3,0035	-13,3	-21,3
3,004	-18,2	-21,3
3,0045	-20,3	-20,3
3,005	-20,3	-18,5
3,0055	-18,9	-16,4
3,006	-16,7	-14,4
3,0065	-13,6	-13,0
3,007	-9,8	-12,3
3,0075	-5,4	-12,1
3,008	-1,1	-12,0
3,0085	3,1	-11,6
3,009	7,1	-10,6
3,0095	11,0	-9,5
3,01	15,0	-8,6
3,0105	19,2	-7,7
3,011	23,3	-6,7
3,0115	26,5	-5,8
3,012	28,0	-5,0
3,0125	26,3	-4,5
3,013	20,5	-4,1
3,0135	10,7	-3,7
3,014	-2,1	-3,0
3,0145	-15,8	-2,2
3,015	-27,9	-1,2
3,0155	-36,3	0,0
3,016	-40,1	0,7
3,0165	-39,5	0,3
3,017	-35,9	-1,5
3,0175	-30,5	-4,7
3,018	-24,5	-8,5
3,0185	-18,4	-12,0
3,019	-12,3	-14,3
3,0195	-5,9	-15,0
3,02	0,7	-13,9
3,0205	6,7	-11,5
3,021	11,1	-9,1
3,0215	12,8	-8,0
3,022	11,8	-8,9
3,0225	9,1	-11,2
3,023	6,9	-13,3
3,0235	7,1	-14,0
3,024	10,4	-12,8
3,0245	15,4	-10,4
3,025	19,5	-7,6
3,0255	21,2	-5,1
3,026	21,0	-3,5
3,0265	20,3	-3,3
3,027	19,8	-4,5
3,0275	19,0	-6,6
3,028	16,3	-8,7
3,0285	10,5	-10,4
3,029	1,4	-11,5
3,0295	-9,4	-12,1
3,03	-19,8	-12,2
3,0305	-27,8	-11,8
3,031	-32,0	-10,9
3,0315	-32,2	-10,0
3,032	-29,1	-9,5
3,0325	-23,8	-9,3
3,033	-17,4	-9,3
3,0335	-10,6	-9,5
3,034	-4,2	-9,9
3,0345	1,3	-10,8
3,035	5,3	-12,0
3,0355	7,9	-13,3
3,036	8,7	-14,7
3,0365	7,4	-16,1
3,037	4,6	-17,1
3,0375	1,2	-16,8
3,038	-1,8	-14,6
3,0385	-3,6	-11,2
3,039	-4,0	-7,4
3,0395	-3,7	-4,3
3,04	-3,3	-2,2
3,0405	-2,7	-0,9
3,041	-0,9	-0,1
3,0415	2,5	0,4
3,042	6,6	0,5
3,0425	9,5	0,2
3,043	10,0	-0,3
3,0435	8,9	-0,7
3,044	7,6	-1,1
3,0445	7,4	-1,3
3,045	8,8	-1,4
3,0455	11,2	-1,4
3,046	12,9	-1,8
3,0465	12,8	-3,1
3,047	10,5	-5,5
3,0475	6,9	-8,7
3,048	3,8	-12,4
3,0485	2,6	-16,2
3,049	3,1	-19,6
3,0495	2,5	-22,2
3,05	-2,1	-23,8
3,0505	-11,4	-24,7
3,051	-23,1	-25,0
3,0515	-33,6	-24,9
3,052	-40,3	-24,6
3,0525	-42,2	-24,4
3,053	-39,8	-24,5
3,0535	-34,1	-24,9
3,054	-26,2	-25,1
3,0545	-16,8	-24,7
3,055	-6,7	-23,3
3,0555	2,9	-21,0
3,056	10,7	-18,5
3,0565	15,8	-16,1
3,057	18,4	-14,1
3,0575	19,2	-12,1
3,058	18,3	-10,4
3,0585	15,1	-8,6
3,059	8,6	-6,6
3,0595	-2,4	-4,4
3,06	-17,4	-2,0
3,0605	-32,8	-0,0
3,061	-43,3	1,1
3,0615	-45,8	1,3
3,062	-41,5	1,0
3,0625	-34,0	0,2
3,063	-26,3	-0,7
3,0635	-19,5	-2,0
3,064	-13,7	-3,6
3,0645	-8,1	-5,3
3,065	-1,8	-6,7
3,0655	5,9	-7,3
3,066	15,3	-7,0
3,0665	25,6	-6,1
3,067	35,0	-5,1
3,0675	41,6	-4,2
3,068	44,6	-3,4
3,0685	44,9	-2,3
3,069	44,5	-0,8
3,0695	44,9	0,7
3,07	46,1	1,1
3,0705	46,9	-0,3
3,071	45,9	-3,6
3,0715	43,1	-7,8
3,072	38,0	-12,0
3,0725	30,4	-15,1
3,073	20,3	-17,0
3,0735	9,1	-17,6
3,074	-0,9	-17,1
3,0745	-7,6	-15,6
3,075	-9,6	-13,1
3,0755	-7,1	-10,0
3,076	-2,5	-6,9
3,0765	1,3	-4,9
3,077	2,5	-4,6
3,0775	1,4	-6,0
3,078	-0,2	-8,2
3,0785	-0,5	-10,3
3,079	-0,3	-11,9
3,0795	-1,3	-12,8
3,08	-4,3	-13,2
3,0805	-8,6	-13,0
3,081	-12,6	-12,4
3,0815	-16,0	-11,7
3,082	-18,4	-11,1
3,0825	-19,0	-10,7
3,083	-17,0	-10,3
3,0835	-12,2	-10,2
3,084	-6,0	-10,9
3,0845	-0,2	-12,7
3,085	5,5	-15,0
3,0855	12,3	-17,2
3,086	20,5	-18,9
3,0865	28,2	-20,4
3,087	33,1	-21,6
3,0875	34,2	-22,3
3,088	31,9	-22,8
3,0885	27,6	-22,7
3,089	22,7	-22,2
3,0895	18,1	-21,0
3,09	14,2	-19,4
3,0905	11,5	-17,8
3,091	10,5	-16,5
3,0915	11,4	-15,5
3,092	13,2	-14,3
3,0925	15,1	-13,0
3,093	16,7	-11,6
3,0935	18,2	-10,3
3,094	19,9	-8,9
3,0945	21,6	-7,5
3,095	22,2	-6,0
3,0955	20,2	-4,7
3,096	14,1	-3,6
3,0965	4,0	-2,8
3,097	-8,5	-2,2
3,0975	-20,7	-1,3
3,098	-30,2	-0,4
3,0985	-35,8	0,1
3,099	-37,1	-0,5
3,0995	-34,3	-2,3
3,1	-27,8	-4,7
3,1005	-18,9	-7,3
3,101	-10,4	-9,7
3,1015	-5,3	-12,0
3,102	-4,8	-14,3
3,1025	-8,1	-16,3
3,103	-12,8	-17,7
3,1035	-15,8	-18,6
3,104	-15,6	-19,1
3,1045	-11,8	-19,1
3,105	-5,7	-18,6
3,1055	1,0	-17,6
3,106	6,8	-16,0
3,1065	11,8	-13,9
3,107	16,2	-11,7
3,1075	20,3	-9,5
3,108	24,5	-7,7
3,1085	29,0	-6,2
3,109	33,8	-5,2
3,1095	39,0	-4,3
3,11	44,0	-3,4
3,1105	47,9	-2,6
3,111	50,3	-1,8
3,1115	51,3	-1,5
3,112	51,8	-2,0
3,1125	51,8	-3,4
3,113	51,2	-5,5
3,1135	49,2	-8,1
3,114	45,6	-10,9
3,1145	40,7	-13,5
3,115	35,1	-15,2
3,1155	29,7	-15,5
3,116	25,3	-14,1
3,1165	22,1	-11,8
3,117	19,6	-9,3
3,1175	16,8	-7,8
3,118	13,2	-7,8
3,1185	8,7	-9,0
3,119	4,1	-10,8
3,1195	0,3	-12,3
3,12	-2,6	-12,8
3,1205	-5,6	-12,1
3,121	-9,8	-10,8
3,1215	-14,8	-9,1
3,122	-19,1	-7,0
3,1225	-21,1	-4,4
3,123	-20,3	-1,6
3,1235	-17,4	0,9
3,124	-13,8	2,1
3,1245	-10,1	1,6
3,125	-6,2	0,2
3,1255	-1,5	-1,3
3,126	4,4	-2,4
3,1265	11,1	-3,3
3,127	17,5	-4,3
3,1275	22,5	-5,3
3,128	25,7	-5,8
3,1285	27,8	-5,9
3,129	29,3	-5,8
3,1295	30,4	-5,9
3,13	30,9	-6,8
3,1305	30,4	-8,3
3,131	28,5	-10,2
3,1315	25,5	-12,0
3,132	21,9	-13,3
3,1325	18,4	-13,9
3,133	15,4	-13,7
3,1335	13,0	-13,3
3,134	11,4	-13,3
3,1345	10,4	-13,5
3,135	9,3	-14,0
3,1355	6,7	-14,5
3,136	1,2	-15,0
3,1365	-7,6	-15,6
3,137	-18,0	-16,3
3,1375	-27,3	-16,8
3,138	-32,7	-16,8
3,1385	-32,6	-16,1
3,139	-27,9	-14,7
3,1395	-20,6	-12,9
3,14	-13,1	-11,2
3,1405	-6,7	-10,0
3,141	-1,5	-9,2
3,1415	2,9	-8,8
3,142	6,9	-8,5
3,1425	10,5	-8,2
3,143	13,5	-8,0
3,1435	15,4	-7,7
3,144	15,6	-6,9
3,1445	14,1	-5,6
3,145	12,0	-3,9
3,1455	10,9	-2,1
3,146	11,4	-0,6
3,1465	12,5	0,4
3,147	12,4	0,7
3,1475	10,7	0,3
3,148	8,6	-0,3
3,1485	7,9	-0,9
3,149	9,0	-1,5
3,1495	11,1	-2,3
3,15	11,8	-3,5
3,1505	8,3	-5,3
3,151	-1,2	-7,6
3,1515	-15,3	-10,0
3,152	-30,3	-12,1
3,1525	-42,1	-13,7
3,153	-48,8	-14,5
3,1535	-50,5	-14,3
3,154	-48,8	-13,0
3,1545	-44,5	-10,8
3,155	-37,8	-8,5
3,1555	-28,3	-6,8
3,156	-16,5	-6,2
3,1565	-4,0	-6,7
3,157	7,1	-8,1
3,1575	15,1	-9,8
3,158	19,4	-11,3
3,1585	20,9	-12,2
3,159	21,2	-12,3
3,1595	21,6	-11,8
3,16	22,6	-10,9
3,1605	23,1	-9,0
3,161	22,6	-6,4
3,1615	22,3	-3,6
3,162	23,6	-2,0
3,1625	25,7	-2,6
3,163	26,8	-5,3
3,1635	26,2	-8,8
3,164	25,8	-11,8
3,1645	27,1	-13,5
3,165	29,3	-13,9
3,1655	29,9	-14,0
3,166	27,5	-14,9
3,1665	22,7	-16,6
3,167	17,4	-18,4
3,1675	13,3	-19,3
3,168	10,8	-19,2
3,1685	9,1	-18,3
3,169	6,9	-17,1
3,1695	4,3	-15,9
3,17	1,5	-14,8
3,1705	-0,6	-13,6
3,171	-2,1	-12,5
3,1715	-4,0	-11,6
3,172	-6,7	-11,0
3,1725	-9,7	-10,5
3,173	-11,3	-10,0
3,1735	-10,6	-9,7
3,174	-8,3	-9,7
3,1745	-5,7	-10,1
3,175	-4,0	-10,5
3,1755	-3,1	-10,8
3,176	-2,1	-10,8
3,1765	0,3	-10,7
3,177	4,4	-10,6
3,1775	10,3	-10,6
3,178	18,4	-10,5
3,1785	27,8	-10,5
3,179	35,7	-10,8
3,1795	39,1	-11,9
3,18	37,0	-14,0
3,1805	30,2	-16,8
3,181	20,5	-19,3
3,1815	9,9	-20,8
3,182	0,7	-21,0
3,1825	-6,0	-20,1
3,183	-9,8	-18,5
3,1835	-10,8	-16,6
3,184	-10,2	-14,7
3,1845	-8,1	-13,2
3,185	-4,5	-12,2
3,1855	1,0	-11,5
3,186	7,8	-11,1
3,1865	14,3	-11,1
3,187	19,0	-11,3
3,1875	20,4	-11,7
3,188	18,1	-12,1
3,1885	12,9	-12,2
3,189	6,5	-11,7
3,1895	-0,3	-10,6
3,19	-7,4	-9,5
3,1905	-14,9	-9,0
3,191	-22,0	-9,4
3,1915	-26,7	-10,4
3,192	-27,1	-11,5
3,1925	-21,8	-12,4
3,193	-11,7	-12,9
3,1935	0,8	-13,3
3,194	12,0	-13,8
3,1945	19,8	-14,3
3,195	23,8	-14,7
3,1955	25,5	-14,5
3,196	26,2	-13,4
3,1965	26,4	-11,5
3,197	25,7	-9,1
3,1975	23,0	-6,4
3,198	17,8	-3,7
3,1985	10,4	-1,6
3,199	2,8	-0,6
3,1995	-2,4	-0,8
3,2	-3,3	-2,1
3,2005	-0,1	-3,7
3,201	5,8	-4,9
3,2015	12,6	-5,2
3,202	18,7	-4,6
3,2025	22,8	-3,3
3,203	24,6	-1,9
3,2035	24,4	-0,8
3,204	23,3	-0,2
3,2045	22,6	-0,1
3,205	23,0	-0,5
3,2055	24,5	-1,6
3,206	26,5	-3,3
3,2065	28,0	-5,4
3,207	28,4	-7,7
3,2075	27,5	-9,5
3,208	26,2	-10,4
3,2085	25,7	-10,3
3,209	26,9	-9,7
3,2095	29,9	-8,7
3,21	33,8	-8,0
3,2105	37,5	-7,4
3,211	40,0	-7,0
3,2115	40,5	-6,6
3,212	38,8	-6,4
3,2125	35,3	-6,5
3,213	29,9	-7,4
3,2135	23,0	-9,3
3,214	15,2	-11,9
3,2145	7,6	-15,1
3,215	1,3	-18,1
3,2155	-2,7	-20,7
3,216	-3,7	-22,3
3,2165	-2,0	-23,1
3,217	1,3	-23,2
3,2175	5,0	-22,8
3,218	8,0	-22,5
3,2185	9,7	-22,3
3,219	10,0	-22,4
3,2195	8,6	-22,6
3,22	6,2	-22,6
3,2205	3,6	-22,2
3,221	2,0	-21,2
3,2215	2,4	-20,0
3,222	5,0	-18,5
3,2225	9,1	-16,9
3,223	12,6	-15,5
3,2235	13,2	-14,6
3,224	10,0	-14,5
3,2245	3,4	-14,9
3,225	-4,7	-15,2
3,2255	-12,1	-14,8
3,226	-17,4	-13,8
3,2265	-19,7	-11,9
3,227	-19,2	-9,9
3,2275	-16,3	-7,9
3,228	-11,5	-6,3
3,2285	-5,3	-5,3
3,229	1,5	-4,9
3,2295	7,5	-5,2
3,23	11,4	-6,0
3,2305	12,7	-7,0
3,231	11,8	-7,9
3,2315	9,5	-8,6
3,232	6,3	-8,8
3,2325	2,3	-8,7
3,233	-1,2	-8,5
3,2335	-2,6	-8,7
3,234	-0,4	-9,3
3,2345	5,0	-10,2
3,235	11,5	-11,1
3,2355	17,4	-11,9
3,236	21,6	-12,4
3,2365	24,6	-12,5
3,237	27,1	-11,7
3,2375	29,8	-10,2
3,238	32,4	-8,4
3,2385	34,3	-7,0
3,239	35,3	-6,5
3,2395	35,6	-7,1
3,24	36,0	-8,3
3,2405	36,6	-9,4
3,241	37,0	-10,0
3,2415	36,8	-10,2
3,242	35,6	-9,8
3,2425	33,5	-9,1
3,243	30,5	-8,3
3,2435	26,5	-7,8
3,244	22,1	-7,8
3,2445	18,3	-7,9
3,245	16,0	-7,8
3,2455	15,6	-7,6
3,246	16,8	-7,4
3,2465	18,7	-7,4
3,247	20,3	-7,7
3,2475	20,1	-8,1
3,248	15,9	-8,2
3,2485	6,2	-8,0
3,249	-9,1	-7,3
3,2495	-27,5	-6,6
3,25	-45,1	-6,1
3,2505	-58,2	-6,0
3,251	-64,3	-6,2
3,2515	-62,7	-6,2
3,252	-54,1	-5,9
3,2525	-39,3	-5,9
3,253	-20,0	-5,8
3,2535	1,6	-5,3
3,254	22,6	-4,0
3,2545	40,0	-2,4
3,255	52,0	-1,4
3,2555	58,4	-1,5
3,256	60,7	-2,3
3,2565	60,9	-3,1
3,257	60,8	-3,5
3,2575	60,9	-3,5
3,258	60,0	-3,2
3,2585	55,4	-2,4
3,259	45,4	-1,2
3,2595	32,2	0,5
3,26	21,1	1,7
3,2605	16,3	2,1
3,261	17,4	1,4
3,2615	21,0	0,3
3,262	23,1	-1,0
3,2625	21,6	-2,2
3,263	16,6	-3,6
3,2635	9,0	-5,7
3,264	-0,3	-8,3
3,2645	-10,1	-10,9
3,265	-18,6	-12,4
3,2655	-24,2	-12,3
3,266	-25,2	-10,8
3,2665	-20,9	-8,6
3,267	-11,8	-6,4
3,2675	0,7	-4,7
3,268	14,5	-3,6
3,2685	27,8	-2,8
3,269	39,0	-1,9
3,2695	46,7	-1,0
3,27	50,2	0,0
3,2705	50,3	0,8
3,271	48,7	1,0
3,2715	46,6	0,4
3,272	44,5	-0,7
3,2725	41,3	-1,8
3,273	35,7	-3,1
3,2735	27,7	-4,3
3,274	18,1	-5,3
3,2745	8,8	-5,5
3,275	1,2	-5,0
3,2755	-3,8	-3,9
3,276	-5,5	-2,6
3,2765	-4,3	-1,1
3,277	-1,7	0,8
3,2775	0,8	2,7
3,278	2,3	3,9
3,2785	3,3	4,1
3,279	5,1	3,3
3,2795	9,3	2,2
3,28	16,4	1,5
3,2805	24,9	1,3
3,281	32,6	1,1
3,2815	38,0	0,7
3,282	40,9	0,2
3,2825	41,9	-0,1
3,283	42,2	0,0
3,2835	42,7	0,1
3,284	43,4	-0,2
3,2845	44,4	-1,1
3,285	45,2	-2,6
3,2855	45,0	-4,5
3,286	42,8	-6,1
3,2865	38,7	-6,8
3,287	33,8	-6,6
3,2875	29,5	-5,7
3,288	25,5	-4,7
3,2885	21,0	-3,9
3,289	16,4	-3,4
3,2895	12,4	-3,0
3,29	9,2	-2,6
3,2905	6,8	-2,4
3,291	5,4	-2,4
3,2915	5,0	-2,6
3,292	5,3	-2,7
3,2925	6,2	-2,4
3,293	7,8	-1,8
3,2935	10,6	-0,8
3,294	14,4	0,6
3,2945	18,3	1,8
3,295	20,9	2,5
3,2955	21,8	2,1
3,296	21,4	0,6
3,2965	20,4	-1,7
3,297	19,5	-4,3
3,2975	19,3	-6,6
3,298	20,2	-8,3
3,2985	22,1	-8,7
3,299	24,8	-8,1
3,2995	28,1	-7,0
3,3	32,4	-5,9
3,3005	37,4	-5,3
3,301	41,6	-5,5
3,3015	43,5	-6,5
3,302	43,0	-8,1
3,3025	41,1	-9,7
3,303	38,4	-10,8
3,3035	34,9	-11,4
3,304	30,5	-11,8
3,3045	25,6	-12,4
3,305	20,5	-13,2
3,3055	14,7	-13,7
3,306	6,6	-13,9
3,3065	-4,1	-13,8
3,307	-15,7	-13,5
3,3075	-25,1	-12,8
3,308	-30,0	-11,7
3,3085	-30,1	-9,9
3,309	-26,3	-7,9
3,3095	-20,4	-6,1
3,31	-13,6	-4,7
3,3105	-6,4	-3,5
3,311	0,4	-2,4
3,3115	6,1	-1,4
3,312	10,3	-0,5
3,3125	12,6	-0,0
3,313	13,0	0,0
3,3135	11,9	-0,3
3,314	9,7	-0,7
3,3145	6,9	-1,0
3,315	3,9	-1,0
3,3155	1,5	-0,7
3,316	0,4	0,4
3,3165	1,2	2,2
3,317	3,9	3,8
3,3175	8,5	4,5
3,318	14,5	4,0
3,3185	21,0	2,7
3,319	26,6	1,2
3,3195	30,3	0,0
3,32	31,3	-1,0
3,3205	30,6	-1,8
3,321	29,5	-2,3
3,3215	29,4	-2,1
3,322	30,8	-1,5
3,3225	33,8	-0,8
3,323	38,1	-0,1
3,3235	42,2	0,4
3,324	44,6	0,4
3,3245	44,2	-0,3
3,325	41,3	-1,8
3,3255	37,5	-3,7
3,326	35,0	-5,3
3,3265	35,3	-6,1
3,327	37,5	-5,6
3,3275	39,0	-4,4
3,328	37,5	-3,2
3,3285	32,4	-2,2
3,329	24,9	-1,9
3,3295	16,9	-2,3
3,33	9,7	-3,1
3,3305	3,1	-4,1
3,331	-3,9	-5,0
3,3315	-11,8	-6,1
3,332	-19,6	-7,4
3,3325	-25,6	-8,8
3,333	-28,3	-9,8
3,3335	-28,2	-10,3
3,334	-26,4	-10,3
3,3345	-24,5	-9,9
3,335	-22,3	-9,2
3,3355	-19,0	-8,3
3,336	-13,5	-7,3
3,3365	-5,9	-6,3
3,337	3,0	-5,5
3,3375	10,6	-4,9
3,338	14,0	-4,6
3,3385	11,7	-4,4
3,339	4,9	-4,4
3,3395	-3,8	-4,5
3,34	-12,4	-4,7
3,3405	-20,0	-5,1
3,341	-26,1	-5,7
3,3415	-30,2	-6,0
3,342	-31,7	-5,8
3,3425	-30,2	-4,9
3,343	-25,5	-4,0
3,3435	-17,9	-3,4
3,344	-7,4	-3,1
3,3445	5,3	-2,4
3,345	19,6	-1,0
3,3455	34,9	1,0
3,346	49,9	3,0
3,3465	63,0	4,2
3,347	72,7	4,6
3,3475	78,0	4,6
3,348	77,8	4,9
3,3485	72,4	5,7
3,349	63,9	6,3
3,3495	56,3	6,1
3,35	51,7	4,8
3,3505	49,4	3,1
3,351	47,9	1,7
3,3515	46,8	0,7
3,352	46,1	-0,0
3,3525	45,3	-0,8
3,353	42,4	-1,9
3,3535	37,1	-3,4
3,354	30,5	-5,1
3,3545	24,5	-6,6
3,355	19,4	-7,7
3,3555	14,8	-8,3
3,356	10,1	-8,5
3,3565	4,8	-8,2
3,357	-0,6	-7,3
3,3575	-4,6	-6,0
3,358	-5,8	-4,3
3,3585	-3,9	-2,7
3,359	0,3	-1,4
3,3595	5,6	-0,5
3,36	11,0	0,3
3,3605	15,9	1,0
3,361	19,5	1,6
3,3615	21,6	1,9
3,362	22,6	2,0
3,3625	23,0	2,3
3,363	22,5	2,8
3,3635	20,5	3,6
3,364	16,4	4,3
3,3645	9,7	4,6
3,365	0,8	4,4
3,3655	-9,1	4,1
3,366	-17,9	4,1
3,3665	-23,9	4,7
3,367	-26,4	5,4
3,3675	-25,4	5,5
3,368	-22,2	4,2
3,3685	-18,1	0,9
3,369	-13,9	-3,8
3,3695	-9,5	-8,7
3,37	-3,3	-12,2
3,3705	6,1	-13,6
3,371	17,9	-13,1
3,3715	29,7	-11,4
3,372	38,4	-9,4
3,3725	42,9	-7,4
3,373	43,3	-5,7
3,3735	41,0	-4,2
3,374	38,0	-2,7
3,3745	35,9	-1,2
3,375	34,9	0,6
3,3755	33,9	2,3
3,376	31,5	3,4
3,3765	26,5	3,5
3,377	19,3	1,8
3,3775	11,4	-1,3
3,378	4,9	-5,2
3,3785	1,1	-8,7
3,379	0,1	-10,8
3,3795	1,1	-11,3
3,38	3,2	-10,5
3,3805	5,9	-8,8
3,381	8,6	-6,5
3,3815	11,0	-4,3
3,382	12,9	-2,4
3,3825	13,9	-0,9
3,383	14,2	0,1
3,3835	13,8	0,6
3,384	13,0	0,5
3,3845	12,2	0,2
3,385	11,4	0,0
3,3855	9,7	-0,8
3,386	5,3	-2,8
3,3865	-2,7	-6,2
3,387	-12,7	-10,2
3,3875	-21,6	-13,3
3,388	-26,7	-14,6
3,3885	-27,0	-14,3
3,389	-23,3	-13,2
3,3895	-17,0	-11,6
3,39	-10,1	-10,0
3,3905	-3,4	-8,3
3,391	2,9	-6,5
3,3915	8,8	-4,4
3,392	14,0	-1,9
3,3925	17,9	0,9
3,393	20,4	3,9
3,3935	22,1	6,9
3,394	23,7	9,7
3,3945	25,3	12,3
3,395	26,8	14,3
3,3955	27,9	15,6
3,396	28,8	15,8
3,3965	29,8	14,9
3,397	30,9	13,1
3,3975	32,3	11,0
3,398	33,7	9,0
3,3985	33,8	7,3
3,399	31,7	6,0
3,3995	27,4	4,9
3,4	22,4	3,6
3,4005	17,5	1,9
3,401	12,8	-0,3
3,4015	8,3	-3,1
3,402	4,3	-6,1
3,4025	2,2	-9,1
3,403	2,2	-11,5
3,4035	4,3	-13,1
3,404	8,3	-14,2
3,4045	14,0	-14,5
3,405	21,3	-14,0
3,4055	29,1	-12,7
3,406	35,5	-11,0
3,4065	38,3	-9,6
3,407	37,0	-8,8
3,4075	32,9	-8,4
3,408	27,8	-7,9
3,4085	22,7	-6,7
3,409	16,6	-5,2
3,4095	8,4	-3,6
3,41	-1,7	-2,2
3,4105	-11,3	-0,6
3,411	-18,1	1,2
3,4115	-21,1	2,8
3,412	-20,5	3,9
3,4125	-17,3	4,1
3,413	-12,3	3,6
3,4135	-6,4	2,7
3,414	-0,2	1,8
3,4145	5,8	1,0
3,415	10,9	0,3
3,4155	15,1	-0,5
3,416	18,8	-1,2
3,4165	22,6	-1,5
3,417	26,7	-1,5
3,4175	30,8	-1,0
3,418	34,5	-0,3
3,4185	37,2	-0,1
3,419	37,7	-0,7
3,4195	35,4	-1,8
3,42	30,9	-2,7
3,4205	25,6	-2,9
3,421	21,8	-2,5
3,4215	20,4	-2,0
3,422	20,7	-2,2
3,4225	20,6	-3,6
3,423	18,4	-6,4
3,4235	13,8	-10,1
3,424	7,5	-13,8
3,4245	0,9	-16,6
3,425	-5,1	-17,5
3,4255	-10,9	-16,5
3,426	-17,4	-14,0
3,4265	-24,5	-10,9
3,427	-30,8	-7,9
3,4275	-34,4	-5,4
3,428	-34,6	-3,7
3,4285	-31,5	-2,9
3,429	-26,0	-3,2
3,4295	-18,4	-4,3
3,43	-9,3	-5,7
3,4305	0,8	-6,5
3,431	10,5	-6,5
3,4315	18,6	-5,8
3,432	24,2	-4,8
3,4325	27,3	-3,9
3,433	28,6	-3,2
3,4335	29,0	-2,7
3,434	29,5	-1,8
3,4345	30,3	-0,3
3,435	30,8	1,7
3,4355	30,4	3,3
3,436	28,8	3,7
3,4365	24,7	2,8
3,437	16,0	1,0
3,4375	2,6	-0,8
3,438	-13,0	-2,2
3,4385	-26,9	-3,3
3,439	-36,3	-4,3
3,4395	-40,3	-5,9
3,44	-38,9	-7,7
3,4405	-33,1	-9,0
3,441	-24,6	-9,4
3,4415	-16,0	-8,7
3,442	-9,6	-7,5
3,4425	-6,1	-6,2
3,443	-5,3	-5,3
3,4435	-6,2	-4,6
3,444	-7,4	-3,8
3,4445	-7,4	-2,7
3,445	-4,8	-1,0
3,4455	1,2	0,8
3,446	10,0	2,4
3,4465	20,0	3,8
3,447	28,1	5,2
3,4475	32,3	6,8
3,448	33,1	8,3
3,4485	33,0	9,0
3,449	33,8	8,7
3,4495	35,0	7,4
3,45	36,0	5,3
3,4505	37,2	2,7
3,451	39,8	-0,2
3,4515	44,4	-2,3
3,452	49,8	-2,8
3,4525	53,9	-1,3
3,453	55,8	0,9
3,4535	55,8	2,5
3,454	54,1	2,2
3,4545	50,4	-0,5
3,455	44,5	-4,9
3,4555	37,1	-9,9
3,456	29,5	-14,5
3,4565	22,6	-17,8
3,457	16,1	-19,4
3,4575	9,0	-19,7
3,458	0,5	-19,2
3,4585	-9,8	-18,2
3,459	-21,4	-16,4
3,4595	-33,3	-13,5
3,46	-44,1	-9,8
3,4605	-51,9	-5,9
3,461	-55,7	-2,1
3,4615	-55,0	0,9
3,462	-50,4	2,7
3,4625	-42,5	3,3
3,463	-32,2	2,8
3,4635	-20,6	1,8
3,464	-8,7	0,8
3,4645	2,5	0,1
3,465	12,8	-0,0
3,4655	21,7	0,2
3,466	28,8	0,5
3,4665	34,1	0,4
3,467	37,7	-0,2
3,4675	40,3	-1,3
3,468	42,2	-2,6
3,4685	43,9	-3,5
3,469	45,0	-4,4
3,4695	44,8	-5,8
3,47	43,0	-7,5
3,4705	39,8	-9,3
3,471	35,8	-11,3
3,4715	32,1	-13,8
3,472	29,2	-16,8
3,4725	27,1	-19,8
3,473	25,3	-22,1
3,4735	23,2	-23,2
3,474	20,3	-23,0
3,4745	16,9	-21,8
3,475	13,9	-19,7
3,4755	12,6	-17,0
3,476	13,0	-14,0
3,4765	13,7	-11,2
3,477	12,4	-9,0
3,4775	8,7	-7,6
3,478	3,8	-6,7
3,4785	-0,3	-5,9
3,479	-3,0	-5,3
3,4795	-4,3	-4,9
3,48	-4,9	-4,9
3,4805	-5,1	-5,2
3,481	-5,4	-5,3
3,4815	-5,8	-5,2
3,482	-5,6	-4,9
3,4825	-4,5	-4,4
3,483	-2,3	-4,0
3,4835	0,7	-3,8
3,484	4,0	-4,1
3,4845	6,9	-5,0
3,485	9,2	-6,1
3,4855	11,1	-6,9
3,486	13,4	-7,0
3,4865	16,7	-6,8
3,487	20,6	-6,4
3,4875	25,0	-6,5
3,488	30,1	-7,3
3,4885	35,5	-8,7
3,489	39,9	-10,3
3,4895	42,1	-11,7
3,49	42,2	-12,2
3,4905	41,0	-11,4
3,491	39,8	-9,6
3,4915	39,0	-7,8
3,492	38,6	-6,6
3,4925	38,2	-6,4
3,493	37,9	-6,7
3,4935	37,7	-6,7
3,494	37,2	-5,8
3,4945	35,7	-4,6
3,495	32,7	-3,9
3,4955	27,8	-4,5
3,496	21,8	-6,7
3,4965	15,5	-9,7
3,497	10,3	-12,5
3,4975	6,8	-13,9
3,498	4,7	-13,0
3,4985	3,1	-10,3
3,499	1,0	-7,0
3,4995	-1,9	-4,7
3,5	-5,1	-4,1
3,5005	-8,3	-5,6
3,501	-11,4	-8,4
3,5015	-14,5	-11,8
3,502	-17,3	-15,1
3,5025	-19,1	-17,5
3,503	-19,5	-18,6
3,5035	-18,7	-18,4
3,504	-17,2	-17,0
3,5045	-15,6	-14,7
3,505	-14,9	-11,8
3,5055	-15,5	-8,9
3,506	-17,1	-6,4
3,5065	-18,6	-4,3
3,507	-18,8	-2,4
3,5075	-17,0	-0,8
3,508	-12,9	0,3
3,5085	-7,0	1,0
3,509	0,6	1,5
3,5095	10,1	1,9
3,51	20,7	2,3
3,5105	31,4	3,0
3,511	40,5	4,0
3,5115	46,1	4,9
3,512	46,8	5,4
3,5125	42,8	5,4
3,513	35,8	5,3
3,5135	28,3	5,2
3,514	22,4	5,2
3,5145	18,8	5,0
3,515	17,2	4,6
3,5155	15,8	3,9
3,516	12,9	3,3
3,5165	8,3	2,5
3,517	3,6	1,4
3,5175	0,6	0,1
3,518	-0,4	-1,7
3,5185	-0,5	-3,6
3,519	-1,2	-5,4
3,5195	-3,1	-6,9
3,52	-5,6	-7,9
3,5205	-7,9	-8,5
3,521	-9,7	-8,9
3,5215	-10,6	-9,6
3,522	-10,6	-10,7
3,5225	-9,9	-12,0
3,523	-9,5	-13,0
3,5235	-10,0	-13,5
3,524	-10,9	-13,2
3,5245	-11,2	-12,2
3,525	-10,4	-10,6
3,5255	-9,9	-8,8
3,526	-11,0	-7,0
3,5265	-14,2	-5,4
3,527	-18,4	-4,3
3,5275	-22,5	-3,3
3,528	-25,7	-2,2
3,5285	-27,7	-1,2
3,529	-28,2	-0,5
3,5295	-27,7	-0,4
3,53	-27,5	-0,6
3,5305	-29,3	-1,1
3,531	-34,3	-1,7
3,5315	-41,8	-2,9
3,532	-49,9	-4,8
3,5325	-56,8	-7,1
3,533	-61,1	-8,9
3,5335	-62,2	-9,8
3,534	-60,4	-9,8
3,5345	-55,9	-9,0
3,535	-48,1	-7,6
3,5355	-36,0	-5,8
3,536	-19,7	-4,3
3,5365	-0,7	-3,2
3,537	18,1	-2,5
3,5375	33,6	-1,8
3,538	43,6	-0,9
3,5385	48,3	0,2
3,539	50,5	0,9
3,5395	53,6	1,2
3,54	58,9	1,2
3,5405	64,8	1,5
3,541	69,1	2,7
3,5415	72,1	4,5
3,542	74,9	6,6
3,5425	77,7	8,3
3,543	78,1	9,3
3,5435	74,2	9,4
3,544	66,1	8,2
3,5445	56,4	5,1
3,545	46,7	0,5
3,5455	37,4	-4,2
3,546	28,8	-7,6
3,5465	21,6	-8,9
3,547	16,2	-8,6
3,5475	12,1	-7,8
3,548	8,9	-7,4
3,5485	7,0	-8,0
3,549	7,0	-9,4
3,5495	8,7	-11,1
3,55	11,4	-12,4
3,5505	14,7	-13,1
3,551	18,1	-12,9
3,5515	21,4	-11,9
3,552	24,2	-10,3
3,5525	26,0	-8,7
3,553	26,6	-7,7
3,5535	25,9	-8,0
3,554	24,7	-9,5
3,5545	23,7	-11,3
3,555	23,4	-12,5
3,5555	23,8	-12,6
3,556	23,9	-12,0
3,5565	23,5	-11,0
3,557	23,1	-9,8
3,5575	23,5	-8,1
3,558	25,3	-5,8
3,5585	27,7	-2,9
3,559	29,9	0,0
3,5595	30,6	2,5
3,56	29,6	4,6
3,5605	27,0	6,2
3,561	23,9	7,3
3,5615	21,4	7,3
3,562	21,1	5,8
3,5625	24,0	3,3
3,563	28,6	0,2
3,5635	31,9	-2,5
3,564	31,6	-4,6
3,5645	27,8	-5,7
3,565	22,5	-5,7
3,5655	17,7	-4,8
3,566	14,4	-3,6
3,5665	12,8	-2,4
3,567	11,9	-2,1
3,5675	11,1	-2,9
3,568	10,0	-5,0
3,5685	8,3	-7,9
3,569	5,7	-11,1
3,5695	1,7	-13,8
3,57	-3,5	-15,6
3,5705	-9,4	-16,0
3,571	-14,8	-15,2
3,5715	-18,5	-13,7
3,572	-19,9	-12,1
3,5725	-19,0	-10,9
3,573	-16,5	-10,3
3,5735	-13,5	-10,4
3,574	-10,8	-10,8
3,5745	-8,9	-10,9
3,575	-7,8	-10,0
3,5755	-7,3	-7,8
3,576	-6,6	-4,4
3,5765	-5,2	-1,0
3,577	-2,7	1,7
3,5775	0,9	3,5
3,578	5,3	4,7
3,5785	10,3	5,1
3,579	15,5	4,5
3,5795	21,2	3,1
3,58	27,4	0,8
3,5805	33,8	-2,0
3,581	39,1	-5,1
3,5815	41,8	-8,3
3,582	41,8	-11,1
3,5825	40,1	-13,5
3,583	38,0	-15,3
3,5835	36,2	-16,7
3,584	34,8	-17,5
3,5845	33,4	-17,3
3,585	31,5	-16,0
3,5855	28,6	-13,8
3,586	25,2	-11,3
3,5865	22,5	-9,5
3,587	20,8	-9,0
3,5875	19,4	-9,7
3,588	17,6	-10,7
3,5885	15,1	-11,5
3,589	12,4	-11,7
3,5895	9,9	-11,5
3,59	7,7	-11,1
3,5905	6,3	-10,4
3,591	6,0	-9,5
3,5915	6,7	-8,2
3,592	7,7	-6,5
3,5925	8,0	-4,8
3,593	7,4	-3,3
3,5935	6,2	-2,1
3,594	4,8	-1,2
3,5945	3,4	-0,7
3,595	2,6	-0,8
3,5955	3,6	-1,1
3,596	7,4	-1,2
3,5965	14,4	-0,7
3,597	23,7	0,3
3,5975	33,2	1,1
3,598	40,1	1,0
3,5985	41,5	-0,8
3,599	36,8	-4,5
3,5995	28,4	-9,3
3,6	20,6	-13,5
3,6005	16,5	-16,1
3,601	16,5	-17,2
3,6015	18,7	-17,4
3,602	20,7	-17,6
3,6025	20,7	-18,2
3,603	18,3	-19,1
3,6035	13,9	-19,7
3,604	9,0	-19,2
3,6045	5,1	-17,0
3,605	2,9	-13,8
3,6055	2,3	-10,4
3,606	2,7	-7,7
3,6065	3,8	-5,6
3,607	5,1	-3,9
3,6075	6,2	-2,3
3,608	6,1	-0,9
3,6085	4,1	0,4
3,609	-0,6	1,6
3,6095	-7,8	2,4
3,61	-16,4	2,7
3,6105	-25,6	2,4
3,611	-35,2	1,2
3,6115	-44,8	-1,0
3,612	-53,1	-3,6
3,6125	-58,2	-6,1
3,613	-58,6	-7,8
3,6135	-53,9	-8,6
3,614	-44,8	-8,3
3,6145	-32,8	-7,3
3,615	-20,2	-6,4
3,6155	-8,6	-6,0
3,616	1,9	-6,2
3,6165	11,7	-6,8
3,617	21,3	-7,5
3,6175	30,5	-8,4
3,618	38,3	-9,8
3,6185	42,6	-11,7
3,619	40,7	-13,9
3,6195	30,9	-15,8
3,62	13,9	-16,6
3,6205	-7,2	-15,8
3,621	-28,1	-13,6
3,6215	-44,8	-10,9
3,622	-53,8	-8,9
3,6225	-53,8	-8,1
3,623	-45,7	-8,5
3,6235	-32,3	-9,6
3,624	-16,0	-10,6
3,6245	2,0	-11,3
3,625	20,6	-11,1
3,6255	38,6	-10,2
3,626	54,4	-8,7
3,6265	67,1	-7,1
3,627	76,3	-5,6
3,6275	82,3	-4,0
3,628	84,3	-2,6
3,6285	80,8	-1,3
3,629	70,8	-0,4
3,6295	56,5	-0,1
3,63	43,5	-0,5
3,6305	36,4	-1,4
3,631	36,1	-2,7
3,6315	39,2	-4,1
3,632	42,0	-5,5
3,6325	42,6	-7,5
3,633	40,8	-10,3
3,6335	36,7	-13,6
3,634	30,3	-16,6
3,6345	20,8	-18,4
3,635	8,9	-18,8
3,6355	-3,7	-18,1
3,636	-14,1	-16,7
3,6365	-20,2	-14,9
3,637	-21,6	-12,8
3,6375	-19,3	-10,8
