Interval=	0,0005 s
ExcelDateTime=	4,5909528315805619e+004	9/09/2025 12:40:46,485605
TimeFormat=	StartOfBlock
DateFormat=	
ChannelTitle=	Biceps	Triceps
Range=	1000,0 µV	1000,0 µV
0	0,1	0,0
0,0005	1,2	0,2
0,001	4,6	0,8
0,0015	10,6	2,1
0,002	18,1	4,3
0,0025	25,8	7,0
0,003	32,8	10,2
0,0035	38,2	13,5
0,004	41,3	16,2
0,0045	41,8	17,1
0,005	41,2	16,3
0,0055	41,1	14,7
0,006	41,9	13,6
0,0065	42,5	13,4
0,007	41,1	13,9
0,0075	36,9	14,6
0,008	30,7	15,3
0,0085	23,9	15,9
0,009	17,9	16,3
0,0095	13,4	16,3
0,01	10,5	16,1
0,0105	8,6	16,0
0,011	6,7	15,4
0,0115	3,9	13,8
0,012	-0,7	11,0
0,0125	-6,8	7,8
0,013	-12,9	5,4
0,0135	-17,3	4,5
0,014	-19,1	5,3
0,0145	-18,9	7,0
0,015	-17,7	8,9
0,0155	-16,2	10,3
0,016	-14,8	11,0
0,0165	-14,2	11,1
0,017	-14,8	10,7
0,0175	-16,4	10,1
0,018	-18,5	9,5
0,0185	-20,7	9,5
0,019	-22,7	10,2
0,0195	-23,4	11,3
0,02	-21,5	12,5
0,0205	-17,2	13,8
0,021	-11,7	15,2
0,0215	-6,3	16,5
0,022	-1,6	18,0
0,0225	2,9	20,0
0,023	7,7	22,9
0,0235	12,5	26,5
0,024	16,4	29,7
0,0245	18,6	31,2
0,025	19,4	30,7
0,0255	19,1	29,0
0,026	18,1	27,0
0,0265	16,6	25,0
0,027	14,9	23,0
0,0275	13,5	21,0
0,028	13,1	19,2
0,0285	13,8	17,6
0,029	14,8	16,1
0,0295	15,7	14,0
0,03	16,5	11,3
0,0305	18,2	8,7
0,031	20,9	6,6
0,0315	22,9	5,1
0,032	22,3	3,9
0,0325	18,7	3,0
0,033	13,2	2,5
0,0335	6,8	2,1
0,034	0,3	1,5
0,0345	-5,2	0,6
0,035	-8,4	0,4
0,0355	-8,3	1,9
0,036	-5,3	5,1
0,0365	-1,1	9,0
0,037	2,6	12,6
0,0375	5,2	15,4
0,038	6,9	17,3
0,0385	7,8	18,2
0,039	7,3	18,1
0,0395	4,5	16,8
0,04	-0,7	14,7
0,0405	-7,3	12,6
0,041	-13,3	11,3
0,0415	-17,3	11,1
0,042	-19,2	11,7
0,0425	-19,8	12,2
0,043	-20,1	12,1
0,0435	-20,6	11,4
0,044	-21,8	10,1
0,0445	-24,3	8,6
0,045	-27,3	7,3
0,0455	-28,7	7,0
0,046	-27,2	7,8
0,0465	-22,3	9,3
0,047	-14,3	11,2
0,0475	-4,1	13,2
0,048	5,9	14,8
0,0485	13,0	15,4
0,049	15,5	15,1
0,0495	13,8	14,0
0,05	10,1	12,6
0,0505	6,5	11,0
0,051	4,7	9,7
0,0515	5,6	8,9
0,052	9,0	9,2
0,0525	13,8	10,6
0,053	18,5	13,0
0,0535	22,1	15,8
0,054	23,3	18,4
0,0545	22,2	20,2
0,055	19,4	21,0
0,0555	16,0	21,0
0,056	12,4	20,3
0,0565	8,0	19,1
0,057	2,4	17,7
0,0575	-3,2	17,3
0,058	-6,7	17,9
0,0585	-6,1	18,7
0,059	-1,2	18,3
0,0595	5,5	16,3
0,06	11,3	13,3
0,0605	14,2	9,7
0,061	14,4	6,2
0,0615	12,6	3,3
0,062	9,9	1,2
0,0625	7,6	0,3
0,063	6,7	0,4
0,0635	8,1	1,6
0,064	11,5	3,3
0,0645	15,8	5,1
0,065	19,3	6,7
0,0655	20,5	7,7
0,066	18,5	7,9
0,0665	13,7	6,9
0,067	7,9	4,8
0,0675	4,0	2,6
0,068	3,4	1,4
0,0685	5,6	1,8
0,069	8,8	3,9
0,0695	12,0	6,7
0,07	14,2	9,4
0,0705	15,4	11,0
0,071	15,6	11,4
0,0715	15,6	10,8
0,072	15,9	10,3
0,0725	16,5	10,4
0,073	16,9	11,1
0,0735	16,6	11,8
0,074	15,4	11,9
0,0745	13,4	10,8
0,075	10,7	8,6
0,0755	7,8	5,8
0,076	5,3	3,8
0,0765	3,4	3,2
0,077	1,7	3,5
0,0775	-0,1	4,1
0,078	-1,7	4,5
0,0785	-2,7	4,4
0,079	-3,1	4,2
0,0795	-2,6	4,3
0,08	-1,4	4,9
0,0805	0,6	5,6
0,081	2,6	6,3
0,0815	4,3	6,7
0,082	5,3	6,9
0,0825	6,3	6,9
0,083	6,8	6,3
0,0835	6,1	5,0
0,084	3,7	3,2
0,0845	0,0	1,3
0,085	-3,4	0,4
0,0855	-4,9	0,6
0,086	-3,8	2,1
0,0865	-0,5	4,4
0,087	4,3	6,8
0,0875	10,0	8,8
0,088	16,1	9,6
0,0885	21,7	9,4
0,089	25,9	8,8
0,0895	28,2	8,8
0,09	28,6	10,0
0,0905	28,5	12,2
0,091	29,2	15,2
0,0915	31,1	18,3
0,092	33,4	20,6
0,0925	34,1	20,8
0,093	31,6	18,1
0,0935	26,0	13,0
0,094	18,8	7,2
0,0945	12,2	2,7
0,095	7,9	0,8
0,0955	5,8	1,2
0,096	4,5	2,7
0,0965	2,4	3,5
0,097	-1,0	2,6
0,0975	-4,3	0,4
0,098	-5,9	-2,2
0,0985	-4,3	-4,3
0,099	0,5	-5,1
0,0995	7,5	-4,8
0,1	14,5	-3,4
0,1005	19,4	-1,1
0,101	21,7	1,9
0,1015	22,2	5,0
0,102	21,5	7,6
0,1025	19,7	9,0
0,103	17,3	9,2
0,1035	15,8	8,3
0,104	16,7	7,0
0,1045	19,8	6,1
0,105	24,0	6,0
0,1055	28,3	6,6
0,106	31,9	7,5
0,1065	34,5	7,8
0,107	35,0	7,0
0,1075	32,8	4,5
0,108	28,2	0,6
0,1085	23,1	-4,2
0,109	19,5	-8,2
0,1095	18,5	-10,3
0,11	18,7	-10,2
0,1105	18,3	-8,4
0,111	16,0	-6,0
0,1115	12,0	-4,2
0,112	7,4	-3,5
0,1125	3,5	-4,1
0,113	1,2	-5,3
0,1135	0,9	-6,5
0,114	2,0	-7,6
0,1145	3,8	-8,3
0,115	5,0	-8,5
0,1155	4,9	-7,9
0,116	3,2	-6,8
0,1165	-0,3	-5,5
0,117	-4,7	-4,2
0,1175	-9,2	-3,0
0,118	-13,4	-2,2
0,1185	-16,8	-2,3
0,119	-18,9	-3,0
0,1195	-19,0	-3,6
0,12	-16,6	-3,2
0,1205	-12,2	-1,8
0,121	-6,9	0,3
0,1215	-1,5	2,5
0,122	3,3	4,6
0,1225	6,9	6,3
0,123	8,8	6,9
0,1235	8,3	6,2
0,124	6,0	4,4
0,1245	3,6	2,5
0,125	2,4	1,2
0,1255	2,4	0,3
0,126	2,5	-0,4
0,1265	1,5	-0,9
0,127	-1,0	-0,9
0,1275	-4,1	-0,1
0,128	-6,3	1,7
0,1285	-6,5	4,0
0,129	-3,9	5,8
0,1295	1,0	6,2
0,13	7,8	5,5
0,1305	15,8	4,4
0,131	24,4	3,5
0,1315	32,6	3,0
0,132	39,5	2,6
0,1325	43,6	1,9
0,133	44,1	1,3
0,1335	41,6	0,9
0,134	37,4	1,1
0,1345	32,6	1,3
0,135	27,4	0,6
0,1355	21,5	-1,6
0,136	14,3	-5,2
0,1365	6,3	-9,6
0,137	-1,4	-14,0
0,1375	-7,3	-17,5
0,138	-10,9	-19,5
0,1385	-12,3	-19,8
0,139	-12,0	-18,1
0,1395	-10,1	-15,2
0,14	-6,7	-11,6
0,1405	-2,0	-8,1
0,141	3,4	-4,8
0,1415	8,8	-1,7
0,142	13,4	1,0
0,1425	16,4	2,6
0,143	18,2	2,7
0,1435	19,3	1,6
0,144	20,6	-0,0
0,1445	22,6	-1,3
0,145	26,1	-1,6
0,1455	30,9	-1,1
0,146	35,8	-0,2
0,1465	38,4	0,8
0,147	37,4	1,1
0,1475	33,3	0,7
0,148	28,3	-0,5
0,1485	24,1	-2,1
0,149	21,8	-3,4
0,1495	21,5	-4,0
0,15	23,1	-3,6
0,1505	25,9	-2,3
0,151	29,4	-0,3
0,1515	33,0	1,8
0,152	36,2	3,9
0,1525	39,2	5,9
0,153	42,0	7,4
0,1535	43,9	7,7
0,154	43,6	5,9
0,1545	40,0	2,0
0,155	34,1	-3,0
0,1555	27,9	-7,1
0,156	23,4	-8,8
0,1565	21,3	-7,7
0,157	20,8	-4,6
0,1575	20,8	-0,7
0,158	20,7	2,7
0,1585	19,9	4,9
0,159	17,9	5,6
0,1595	14,7	5,0
0,16	10,4	3,5
0,1605	5,7	1,8
0,161	1,4	0,3
0,1615	-2,3	-0,9
0,162	-5,3	-2,0
0,1625	-7,5	-3,2
0,163	-8,9	-4,3
0,1635	-9,3	-5,4
0,164	-8,5	-6,4
0,1645	-7,0	-7,3
0,165	-5,1	-7,8
0,1655	-3,2	-7,8
0,166	-1,8	-7,8
0,1665	-0,9	-7,6
0,167	0,2	-7,5
0,1675	2,6	-7,2
0,168	6,8	-6,3
0,1685	12,1	-4,4
0,169	16,8	-1,8
0,1695	19,8	0,8
0,17	20,9	2,8
0,1705	21,4	4,1
0,171	22,2	4,9
0,1715	23,0	5,1
0,172	22,7	4,6
0,1725	20,8	3,9
0,173	18,0	3,6
0,1735	15,5	4,3
0,174	14,2	5,9
0,1745	14,3	7,9
0,175	15,5	9,6
0,1755	16,9	10,3
0,176	17,9	10,3
0,1765	18,8	9,7
0,177	20,0	9,4
0,1775	22,0	9,4
0,178	24,4	9,6
0,1785	26,3	9,3
0,179	26,7	8,3
0,1795	25,6	6,4
0,18	23,0	4,2
0,1805	19,1	1,5
0,181	13,8	-1,2
0,1815	6,7	-3,5
0,182	-2,1	-4,4
0,1825	-11,5	-4,0
0,183	-19,7	-2,8
0,1835	-25,1	-1,8
0,184	-26,8	-1,0
0,1845	-24,7	0,1
0,185	-19,2	2,0
0,1855	-11,4	4,5
0,186	-3,5	7,0
0,1865	2,5	8,5
0,187	5,7	8,8
0,1875	6,5	7,9
0,188	6,2	6,4
0,1885	6,1	5,1
0,189	7,6	4,9
0,1895	11,0	6,2
0,19	16,0	8,6
0,1905	21,7	11,1
0,191	27,4	13,1
0,1915	33,0	14,7
0,192	38,0	16,3
0,1925	41,8	17,6
0,193	42,8	17,5
0,1935	40,1	15,7
0,194	33,5	12,4
0,1945	24,0	8,3
0,195	13,4	3,7
0,1955	3,7	-1,0
0,196	-3,3	-5,4
0,1965	-6,5	-8,7
0,197	-5,7	-10,2
0,1975	-2,6	-9,7
0,198	-0,1	-7,7
0,1985	-1,3	-5,7
0,199	-7,1	-5,0
0,1995	-15,5	-5,8
0,2	-23,9	-7,5
0,2005	-31,3	-9,1
0,201	-37,8	-10,3
0,2015	-43,3	-10,8
0,202	-46,4	-10,6
0,2025	-45,8	-9,4
0,203	-41,1	-7,2
0,2035	-33,7	-4,3
0,204	-25,0	-1,3
0,2045	-15,8	1,1
0,205	-6,1	3,2
0,2055	4,0	5,3
0,206	13,6	7,6
0,2065	21,5	10,4
0,207	27,2	13,5
0,2075	30,4	16,5
0,208	31,9	18,8
0,2085	32,8	20,0
0,209	34,0	19,8
0,2095	35,8	18,3
0,21	37,7	15,7
0,2105	39,3	13,0
0,211	40,6	11,1
0,2115	41,9	10,5
0,212	43,2	10,4
0,2125	43,3	10,3
0,213	41,1	9,7
0,2135	36,6	8,6
0,214	31,6	6,9
0,2145	28,1	4,8
0,215	26,3	2,4
0,2155	24,3	-0,3
0,216	20,8	-3,3
0,2165	15,3	-6,1
0,217	8,8	-8,1
0,2175	2,2	-8,7
0,218	-3,5	-8,1
0,2185	-7,5	-7,1
0,219	-10,1	-6,0
0,2195	-12,8	-4,7
0,22	-16,7	-3,1
0,2205	-21,5	-1,2
0,221	-25,7	0,6
0,2215	-28,1	1,7
0,222	-27,8	2,1
0,2225	-24,6	2,5
0,223	-18,7	3,5
0,2235	-11,1	5,6
0,224	-2,8	8,5
0,2245	5,2	11,4
0,225	12,0	13,6
0,2255	16,8	14,8
0,226	18,5	14,9
0,2265	17,4	14,9
0,227	15,1	15,8
0,2275	13,8	17,9
0,228	14,2	20,8
0,2285	15,8	23,1
0,229	17,4	23,6
0,2295	18,1	21,9
0,23	18,1	18,4
0,2305	18,1	13,5
0,231	18,6	8,0
0,2315	19,8	3,0
0,232	21,8	-0,3
0,2325	24,8	-1,2
0,233	29,1	0,5
0,2335	34,3	4,2
0,234	39,7	8,7
0,2345	44,4	12,9
0,235	47,7	16,3
0,2355	49,6	18,6
0,236	50,1	20,1
0,2365	49,8	21,1
0,237	49,4	21,8
0,2375	49,2	21,8
0,238	48,7	21,1
0,2385	46,9	19,8
0,239	42,9	17,8
0,2395	36,7	15,3
0,24	29,1	11,7
0,2405	21,5	6,6
0,241	15,0	0,6
0,2415	10,3	-4,8
0,242	7,2	-8,4
0,2425	5,1	-10,0
0,243	4,0	-9,7
0,2435	3,9	-8,3
0,244	4,4	-6,7
0,2445	5,1	-5,3
0,245	5,8	-4,5
0,2455	7,0	-4,1
0,246	9,0	-3,7
0,2465	11,9	-3,3
0,247	15,4	-2,8
0,2475	19,1	-2,2
0,248	22,4	-1,6
0,2485	25,2	-1,2
0,249	27,0	-0,9
0,2495	28,2	-0,5
0,25	28,8	0,5
0,2505	29,0	2,5
0,251	28,8	5,4
0,2515	27,7	8,5
0,252	25,7	11,2
0,2525	22,5	12,6
0,253	18,3	12,3
0,2535	13,5	10,4
0,254	9,1	7,2
0,2545	5,7	3,3
0,255	3,1	-0,5
0,2555	1,0	-3,3
0,256	-0,7	-4,4
0,2565	-1,5	-4,1
0,257	-1,1	-2,9
0,2575	0,4	-1,4
0,258	2,8	0,3
0,2585	5,7	1,9
0,259	8,7	3,3
0,2595	11,6	4,0
0,26	13,7	3,9
0,2605	14,4	2,9
0,261	13,4	1,3
0,2615	11,5	-0,3
0,262	9,8	-1,5
0,2625	9,2	-1,9
0,263	9,6	-1,5
0,2635	10,4	-0,8
0,264	10,9	0,0
0,2645	10,7	0,6
0,265	9,6	0,8
0,2655	7,9	0,2
0,266	6,3	-0,6
0,2665	5,0	-1,2
0,267	3,4	-1,4
0,2675	1,0	-1,2
0,268	-1,8	-0,8
0,2685	-4,2	-0,1
0,269	-5,4	0,6
0,2695	-5,4	0,8
0,27	-4,4	0,6
0,2705	-2,8	0,1
0,271	-1,0	-0,5
0,2715	0,4	-0,7
0,272	1,2	-0,7
0,2725	1,2	-0,2
0,273	1,1	1,2
0,2735	0,8	3,4
0,274	0,2	5,9
0,2745	-1,0	7,7
0,275	-2,1	8,6
0,2755	-2,1	8,3
0,276	-0,5	7,1
0,2765	2,6	4,7
0,277	7,2	1,3
0,2775	12,6	-2,5
0,278	17,7	-5,7
0,2785	21,1	-7,3
0,279	22,2	-7,3
0,2795	21,1	-6,3
0,28	19,3	-5,0
0,2805	18,2	-3,8
0,281	19,0	-3,0
0,2815	21,6	-2,5
0,282	25,5	-2,2
0,2825	29,4	-1,9
0,283	31,9	-1,5
0,2835	32,1	-1,3
0,284	30,4	-1,1
0,2845	28,3	-0,7
0,285	26,0	0,2
0,2855	23,2	1,7
0,286	19,5	3,6
0,2865	15,0	5,3
0,287	10,2	5,9
0,2875	5,8	5,3
0,288	2,0	4,0
0,2885	-0,6	2,8
0,289	-1,5	2,2
0,2895	-1,0	2,6
0,29	0,2	4,0
0,2905	0,8	6,2
0,291	-1,1	8,7
0,2915	-6,1	11,2
0,292	-13,3	13,0
0,2925	-20,9	14,0
0,293	-27,2	14,3
0,2935	-30,5	14,4
0,294	-29,2	14,3
0,2945	-22,4	13,7
0,295	-11,0	12,3
0,2955	2,4	10,1
0,296	14,5	7,9
0,2965	22,8	6,3
0,297	26,8	5,0
0,2975	26,7	3,1
0,298	23,8	0,3
0,2985	19,7	-2,3
0,299	16,1	-4,0
0,2995	13,6	-4,2
0,3	12,1	-3,4
0,3005	11,1	-2,1
0,301	10,3	-0,6
0,3015	10,3	0,8
0,302	11,6	2,2
0,3025	14,6	3,5
0,303	19,0	4,5
0,3035	23,8	5,3
0,304	27,8	6,1
0,3045	29,9	7,2
0,305	29,9	8,1
0,3055	27,7	8,8
0,306	23,9	8,9
0,3065	19,7	8,9
0,307	16,2	8,8
0,3075	14,1	8,9
0,308	12,4	9,4
0,3085	10,8	9,8
0,309	9,5	9,7
0,3095	9,7	8,9
0,31	11,5	7,5
0,3105	14,5	5,8
0,311	18,0	4,1
0,3115	22,1	2,7
0,312	26,5	1,6
0,3125	29,9	0,8
0,313	31,1	0,0
0,3135	30,3	-0,8
0,314	28,4	-2,0
0,3145	26,5	-3,5
0,315	24,4	-5,1
0,3155	20,7	-6,6
0,316	14,9	-8,0
0,3165	7,8	-9,4
0,317	1,3	-10,4
0,3175	-2,4	-10,2
0,318	-2,8	-8,3
0,3185	-0,3	-5,3
0,319	3,3	-2,2
0,3195	5,8	-0,2
0,32	6,1	0,3
0,3205	4,0	-0,4
0,321	-0,4	-1,6
0,3215	-6,7	-2,8
0,322	-13,1	-3,6
0,3225	-17,6	-3,4
0,323	-18,5	-1,6
0,3235	-15,8	1,5
0,324	-10,8	4,8
0,3245	-5,2	6,8
0,325	0,4	7,3
0,3255	5,9	6,9
0,326	12,1	6,9
0,3265	19,5	8,4
0,327	28,4	11,1
0,3275	37,7	13,5
0,328	44,8	14,0
0,3285	47,5	12,1
0,329	45,5	7,8
0,3295	40,4	2,4
0,33	35,1	-2,4
0,3305	31,5	-5,4
0,331	30,2	-6,7
0,3315	30,0	-7,5
0,332	29,2	-9,3
0,3325	26,6	-12,3
0,333	21,9	-16,0
0,3335	15,9	-19,2
0,334	10,4	-21,1
0,3345	7,3	-21,1
0,335	7,2	-19,2
0,3355	9,6	-15,9
0,336	12,8	-12,2
0,3365	15,2	-8,9
0,337	16,4	-6,6
0,3375	16,6	-5,0
0,338	16,2	-3,7
0,3385	15,3	-2,5
0,339	14,3	-1,4
0,3395	13,4	-0,5
0,34	12,8	0,3
0,3405	12,3	0,7
0,341	12,3	1,0
0,3415	12,5	1,3
0,342	12,9	1,5
0,3425	13,1	1,8
0,343	13,1	2,1
0,3435	13,2	2,5
0,344	13,5	2,6
0,3445	13,7	1,5
0,345	13,2	-0,9
0,3455	11,8	-4,0
0,346	10,2	-6,3
0,3465	9,1	-6,8
0,347	8,8	-5,4
0,3475	9,1	-2,9
0,348	9,4	-0,5
0,3485	8,9	0,8
0,349	7,4	0,3
0,3495	4,5	-1,8
0,35	0,1	-5,1
0,3505	-5,3	-8,9
0,351	-10,0	-12,0
0,3515	-12,1	-13,4
0,352	-10,9	-12,7
0,3525	-7,1	-10,2
0,353	-2,2	-7,0
0,3535	2,4	-3,9
0,354	6,3	-1,5
0,3545	9,7	0,0
0,355	13,1	0,5
0,3555	16,7	0,3
0,356	19,7	-0,4
0,3565	21,3	-1,6
0,357	21,4	-3,1
0,3575	21,6	-4,4
0,358	23,9	-4,5
0,3585	28,5	-3,3
0,359	33,3	-1,5
0,3595	35,6	-0,2
0,36	34,0	0,3
0,3605	28,8	-0,0
0,361	21,3	-0,7
0,3615	12,9	-1,9
0,362	5,6	-3,5
0,3625	0,4	-5,3
0,363	-2,2	-6,4
0,3635	-2,2	-6,3
0,364	-0,2	-4,9
0,3645	3,3	-2,9
0,365	7,4	-0,7
0,3655	10,9	1,3
0,366	12,9	2,6
0,3665	12,9	3,0
0,367	10,9	2,3
0,3675	8,3	0,7
0,368	6,3	-1,1
0,3685	5,6	-2,2
0,369	6,4	-2,4
0,3695	8,6	-2,3
0,37	12,7	-2,1
0,3705	18,3	-2,0
0,371	23,5	-2,0
0,3715	26,2	-1,8
0,372	25,7	-1,5
0,3725	23,4	-0,7
0,373	20,9	0,4
0,3735	19,0	1,8
0,374	17,8	2,8
0,3745	17,2	2,9
0,375	16,9	2,4
0,3755	16,8	1,6
0,376	17,3	1,1
0,3765	18,2	1,8
0,377	18,8	3,2
0,3775	17,3	4,3
0,378	12,6	4,0
0,3785	5,3	2,0
0,379	-2,4	-0,4
0,3795	-9,0	-1,7
0,38	-14,4	-1,5
0,3805	-19,4	-0,7
0,381	-24,4	-0,3
0,3815	-28,9	-0,8
0,382	-32,4	-1,7
0,3825	-33,8	-2,0
0,383	-32,0	-1,1
0,3835	-26,4	1,0
0,384	-17,7	3,9
0,3845	-7,6	7,1
0,385	1,9	10,0
0,3855	9,4	12,0
0,386	14,6	12,5
0,3865	18,6	11,8
0,387	22,9	10,8
0,3875	28,0	10,3
0,388	33,6	10,3
0,3885	38,8	10,8
0,389	42,1	11,4
0,3895	42,6	11,9
0,39	40,5	11,9
0,3905	37,3	11,1
0,391	34,1	8,7
0,3915	31,2	4,6
0,392	28,1	-0,8
0,3925	24,2	-6,2
0,393	19,7	-10,6
0,3935	15,2	-13,5
0,394	12,1	-14,9
0,3945	11,0	-15,1
0,395	11,8	-14,3
0,3955	13,0	-13,0
0,396	13,3	-11,8
0,3965	12,2	-11,0
0,397	10,6	-10,8
0,3975	10,3	-10,5
0,398	12,2	-9,5
0,3985	16,7	-7,8
0,399	23,1	-5,4
0,3995	30,2	-3,2
0,4	36,7	-1,2
0,4005	41,8	0,4
0,401	44,8	2,0
0,4015	45,7	3,9
0,402	44,3	6,4
0,4025	41,0	9,3
0,403	36,1	12,0
0,4035	30,5	14,1
0,404	24,8	15,2
0,4045	19,5	15,4
0,405	15,3	14,8
0,4055	12,3	14,0
0,406	10,3	12,7
0,4065	8,3	10,6
0,407	5,5	6,8
0,4075	1,7	1,3
0,408	-2,0	-4,6
0,4085	-4,2	-8,7
0,409	-4,3	-10,1
0,4095	-3,4	-9,8
0,41	-3,2	-9,9
0,4105	-4,3	-11,3
0,411	-6,3	-13,5
0,4115	-8,1	-15,5
0,412	-9,6	-16,7
0,4125	-10,8	-17,0
0,413	-11,2	-16,5
0,4135	-10,6	-15,3
0,414	-9,1	-13,5
0,4145	-8,2	-11,7
0,415	-9,7	-10,1
0,4155	-14,8	-8,8
0,416	-23,1	-7,7
0,4165	-32,1	-6,2
0,417	-38,8	-4,2
0,4175	-40,5	-1,5
0,418	-36,6	1,6
0,4185	-27,8	4,7
0,419	-16,2	7,4
0,4195	-3,5	9,7
0,42	8,8	11,5
0,4205	20,1	12,7
0,421	29,7	13,2
0,4215	37,0	13,0
0,422	41,3	11,8
0,4225	41,8	9,4
0,423	39,0	6,0
0,4235	34,4	1,7
0,424	29,5	-2,8
0,4245	25,1	-6,3
0,425	21,0	-7,9
0,4255	17,7	-7,3
0,426	16,3	-5,0
0,4265	17,6	-2,6
0,427	20,4	-1,2
0,4275	22,5	-1,6
0,428	22,7	-3,2
0,4285	21,3	-5,2
0,429	19,3	-6,6
0,4295	18,2	-6,8
0,43	18,3	-5,8
0,4305	19,4	-4,2
0,431	20,4	-2,8
0,4315	20,1	-2,2
0,432	18,3	-2,3
0,4325	15,8	-2,3
0,433	13,8	-1,9
0,4335	13,0	-1,2
0,434	13,3	-0,4
0,4345	13,7	0,0
0,435	13,6	0,3
0,4355	13,3	0,9
0,436	12,9	1,8
0,4365	12,7	2,7
0,437	12,7	3,0
0,4375	12,7	3,0
0,438	12,8	2,8
0,4385	12,1	3,0
0,439	9,9	3,3
0,4395	6,2	3,8
0,44	0,9	4,3
0,4405	-5,8	4,6
0,441	-13,3	4,9
0,4415	-20,2	5,2
0,442	-25,9	4,7
0,4425	-30,0	2,8
0,443	-32,0	-0,3
0,4435	-30,9	-3,6
0,444	-26,8	-5,9
0,4445	-20,3	-6,6
0,445	-12,8	-6,1
0,4455	-5,8	-5,2
0,446	-0,3	-4,5
0,4465	3,4	-4,2
0,447	6,1	-3,9
0,4475	9,3	-2,9
0,448	13,9	-0,9
0,4485	20,5	1,8
0,449	28,5	4,8
0,4495	36,0	7,3
0,45	40,3	8,5
0,4505	40,0	8,3
0,451	36,7	6,8
0,4515	32,9	4,8
0,452	29,1	2,5
0,4525	24,4	0,2
0,453	18,5	-1,6
0,4535	12,1	-2,4
0,454	5,2	-1,8
0,4545	-2,4	0,0
0,455	-10,4	2,5
0,4555	-17,4	4,9
0,456	-22,6	6,9
0,4565	-25,9	8,6
0,457	-27,6	10,2
0,4575	-27,5	11,6
0,458	-25,4	12,9
0,4585	-21,3	13,7
0,459	-16,1	13,8
0,4595	-10,5	13,5
0,46	-4,8	13,2
0,4605	1,4	13,5
0,461	7,9	14,7
0,4615	14,1	16,3
0,462	19,4	17,7
0,4625	23,7	18,2
0,463	27,4	17,9
0,4635	31,1	17,0
0,464	34,6	15,5
0,4645	36,6	13,7
0,465	35,3	11,8
0,4655	30,0	10,0
0,466	21,7	8,0
0,4665	12,6	5,1
0,467	4,9	1,2
0,4675	0,5	-2,6
0,468	0,1	-4,6
0,4685	2,7	-4,3
0,469	6,6	-2,0
0,4695	10,2	1,4
0,47	13,0	4,9
0,4705	15,1	7,7
0,471	16,8	9,1
0,4715	18,7	9,5
0,472	20,4	9,1
0,4725	21,3	8,3
0,473	20,5	6,6
0,4735	17,9	4,1
0,474	14,4	1,4
0,4745	11,6	-0,3
0,475	10,1	-0,7
0,4755	10,5	0,2
0,476	12,7	1,8
0,4765	16,3	3,6
0,477	20,7	5,6
0,4775	24,8	7,8
0,478	28,1	10,1
0,4785	30,0	12,3
0,479	30,0	13,8
0,4795	28,1	14,3
0,48	25,2	13,6
0,4805	23,2	12,3
0,481	23,2	11,1
0,4815	24,2	10,2
0,482	24,1	8,9
0,4825	21,4	6,8
0,483	16,3	3,7
0,4835	10,1	0,1
0,484	4,3	-3,2
0,4845	-0,1	-5,9
0,485	-3,3	-7,8
0,4855	-6,1	-8,8
0,486	-9,0	-9,0
0,4865	-12,0	-8,3
0,487	-14,3	-6,7
0,4875	-15,0	-4,2
0,488	-14,2	-1,2
0,4885	-12,9	1,5
0,489	-12,4	3,7
0,4895	-13,0	5,4
0,49	-13,3	6,7
0,4905	-11,9	8,1
0,491	-7,5	9,6
0,4915	-0,6	11,0
0,492	7,2	12,1
0,4925	13,8	12,8
0,493	18,0	13,5
0,4935	20,2	14,5
0,494	21,7	15,7
0,4945	23,2	17,1
0,495	24,8	18,8
0,4955	26,0	20,6
0,496	26,2	22,0
0,4965	25,1	22,2
0,497	22,5	20,5
0,4975	19,0	16,6
0,498	15,9	11,3
0,4985	14,3	6,2
0,499	14,4	3,0
0,4995	14,9	1,8
0,5	14,3	1,9
0,5005	12,2	2,3
0,501	8,7	2,6
0,5015	4,7	2,6
0,502	1,6	2,4
0,5025	0,4	2,6
0,503	1,6	3,5
0,5035	4,8	5,3
0,504	9,3	7,7
0,5045	14,8	10,3
0,505	19,9	12,8
0,5055	23,1	15,0
0,506	23,7	17,1
0,5065	22,1	18,6
0,507	19,0	19,1
0,5075	15,3	18,2
0,508	12,0	16,1
0,5085	10,8	13,5
0,509	12,6	11,1
0,5095	16,3	9,1
0,51	19,9	7,4
0,5105	21,7	6,1
0,511	21,5	5,4
0,5115	19,8	5,2
0,512	17,7	5,5
0,5125	16,4	6,2
0,513	16,3	7,2
0,5135	17,1	8,4
0,514	18,1	9,6
0,5145	18,6	10,9
0,515	18,0	12,0
0,5155	15,5	12,4
0,516	10,8	12,0
0,5165	4,9	11,0
0,517	-0,8	10,0
0,5175	-5,1	9,2
0,518	-7,6	8,6
0,5185	-8,5	8,1
0,519	-7,8	7,8
0,5195	-5,7	7,9
0,52	-2,8	8,4
0,5205	0,2	9,2
0,521	2,6	10,4
0,5215	4,4	12,0
0,522	5,5	13,6
0,5225	6,0	14,7
0,523	5,9	15,0
0,5235	5,7	15,0
0,524	5,9	15,5
0,5245	6,7	17,0
0,525	7,3	19,2
0,5255	6,3	21,1
0,526	2,7	22,1
0,5265	-2,3	21,6
0,527	-6,4	19,5
0,5275	-7,9	16,5
0,528	-7,0	13,9
0,5285	-5,2	12,8
0,529	-3,4	13,8
0,5295	-0,8	16,1
0,53	3,4	18,5
0,5305	8,4	19,7
0,531	12,3	18,7
0,5315	14,1	15,8
0,532	14,8	11,8
0,5325	16,2	8,3
0,533	19,2	6,1
0,5335	23,4	5,4
0,534	28,0	5,9
0,5345	32,5	6,8
0,535	36,3	7,6
0,5355	39,2	8,0
0,536	41,3	8,2
0,5365	43,3	8,6
0,537	45,2	9,8
0,5375	46,3	11,5
0,538	45,9	13,1
0,5385	44,4	14,2
0,539	42,8	15,0
0,5395	41,3	16,3
0,54	39,9	18,3
0,5405	37,8	20,1
0,541	34,3	20,7
0,5415	28,8	19,7
0,542	22,1	17,8
0,5425	15,4	16,1
0,543	10,0	14,8
0,5435	6,3	13,4
0,544	3,6	11,7
0,5445	1,3	10,0
0,545	-0,7	8,9
0,5455	-2,5	8,3
0,546	-3,6	8,0
0,5465	-3,2	7,9
0,547	-0,8	8,3
0,5475	3,4	9,1
0,548	8,8	10,3
0,5485	14,3	11,4
0,549	19,2	12,3
0,5495	23,2	12,9
0,55	25,8	12,8
0,5505	27,1	11,6
0,551	28,0	8,9
0,5515	29,5	5,2
0,552	32,0	1,9
0,5525	34,3	0,3
0,553	34,1	0,1
0,5535	29,7	0,3
0,554	21,9	0,5
0,5545	14,0	0,8
0,555	9,1	1,6
0,5555	8,1	2,6
0,556	9,7	3,5
0,5565	12,1	3,6
0,557	13,7	2,8
0,5575	13,5	1,5
0,558	10,5	0,5
0,5585	4,4	0,2
0,559	-4,6	0,5
0,5595	-15,1	1,1
0,56	-25,1	2,1
0,5605	-32,5	3,5
0,561	-35,8	5,6
0,5615	-34,9	8,4
0,562	-30,5	11,4
0,5625	-23,8	14,3
0,563	-16,2	16,7
0,5635	-8,9	18,2
0,564	-2,8	18,5
0,5645	1,8	17,6
0,565	4,9	15,6
0,5655	7,0	13,4
0,566	8,7	11,6
0,5665	10,4	10,7
0,567	12,2	10,9
0,5675	14,1	12,0
0,568	16,7	13,3
0,5685	21,0	14,4
0,569	26,3	15,2
0,5695	31,1	15,1
0,57	33,8	13,6
0,5705	34,4	10,7
0,571	33,8	7,1
0,5715	32,6	4,1
0,572	30,7	2,4
0,5725	28,2	1,8
0,573	25,3	1,8
0,5735	22,5	2,3
0,574	20,1	3,2
0,5745	18,4	4,6
0,575	17,2	6,0
0,5755	16,5	7,0
0,576	16,5	7,6
0,5765	17,3	7,8
0,577	18,9	8,0
0,5775	20,3	8,3
0,578	20,4	8,7
0,5785	18,3	8,4
0,579	14,8	7,5
0,5795	11,3	6,2
0,58	8,9	4,7
0,5805	8,1	3,5
0,581	8,5	2,2
0,5815	9,4	0,7
0,582	10,8	-1,0
0,5825	12,6	-2,5
0,583	14,4	-3,4
0,5835	15,6	-3,6
0,584	15,3	-3,3
0,5845	13,6	-2,6
0,585	10,7	-1,7
0,5855	7,1	-0,6
0,586	3,3	0,7
0,5865	-0,8	1,9
0,587	-5,4	2,7
0,5875	-10,4	2,6
0,588	-15,1	1,5
0,5885	-18,0	-0,1
0,589	-18,0	-1,0
0,5895	-15,5	-0,6
0,59	-11,2	1,1
0,5905	-5,9	3,8
0,591	0,3	7,1
0,5915	7,3	10,6
0,592	14,8	14,1
0,5925	21,5	17,0
0,593	26,6	19,1
0,5935	29,3	19,8
0,594	29,4	19,2
0,5945	27,3	17,2
0,595	23,4	14,1
0,5955	18,0	10,3
0,596	11,9	6,3
0,5965	6,2	2,2
0,597	1,7	-2,2
0,5975	-1,0	-6,8
0,598	-1,8	-11,0
0,5985	-0,7	-13,7
0,599	1,5	-14,0
0,5995	3,9	-12,3
0,6	5,8	-9,7
0,6005	7,0	-7,4
0,601	7,7	-5,9
0,6015	8,1	-5,0
0,602	8,5	-4,3
0,6025	8,7	-3,6
0,603	8,4	-2,6
0,6035	7,8	-1,5
0,604	7,5	-0,3
0,6045	7,6	0,8
0,605	7,2	1,7
0,6055	5,1	2,8
0,606	0,2	4,0
0,6065	-7,5	5,4
0,607	-17,2	6,9
0,6075	-27,8	8,3
0,608	-37,8	9,5
0,6085	-45,6	9,6
0,609	-50,3	8,2
0,6095	-51,3	5,8
0,61	-48,4	3,3
0,6105	-41,9	1,7
0,611	-32,2	1,6
0,6115	-20,0	3,2
0,612	-6,3	6,3
0,6125	7,7	9,8
0,613	19,8	12,6
0,6135	28,4	14,1
0,614	33,3	14,2
0,6145	35,5	13,4
0,615	37,3	12,2
0,6155	39,7	10,8
0,616	42,9	9,2
0,6165	45,5	7,6
0,617	46,1	5,9
0,6175	44,5	4,5
0,618	42,1	3,2
0,6185	40,6	2,3
0,619	40,3	1,7
0,6195	39,9	0,9
0,62	38,1	-0,6
0,6205	34,9	-3,0
0,621	31,6	-5,4
0,6215	29,7	-6,4
0,622	29,9	-4,8
0,6225	31,1	-1,2
0,623	32,0	3,1
0,6235	31,5	6,1
0,624	29,3	6,9
0,6245	25,4	5,6
0,625	20,3	3,0
0,6255	14,3	0,2
0,626	7,7	-2,2
0,6265	1,0	-3,8
0,627	-4,8	-5,0
0,6275	-8,4	-5,7
0,628	-9,7	-5,6
0,6285	-8,9	-4,6
0,629	-6,4	-2,9
0,6295	-2,9	-0,6
0,63	1,0	1,8
0,6305	5,0	4,0
0,631	8,6	5,7
0,6315	11,5	6,6
0,632	14,1	6,8
0,6325	15,9	6,7
0,633	16,8	6,0
0,6335	15,8	4,8
0,634	12,6	2,7
0,6345	7,3	0,3
0,635	0,7	-1,6
0,6355	-5,9	-2,3
0,636	-10,9	-1,5
0,6365	-13,7	0,5
0,637	-14,6	3,1
0,6375	-14,9	5,3
0,638	-15,9	6,4
0,6385	-18,4	6,0
0,639	-22,7	4,0
0,6395	-28,8	1,1
0,64	-35,5	-1,8
0,6405	-40,8	-3,4
0,641	-42,8	-2,8
0,6415	-40,6	-0,1
0,642	-34,3	3,9
0,6425	-24,8	8,3
0,643	-13,1	12,2
0,6435	-0,8	14,8
0,644	10,6	15,8
0,6445	19,7	15,8
0,645	25,7	15,5
0,6455	28,3	15,1
0,646	27,7	14,1
0,6465	24,3	12,0
0,647	19,7	8,8
0,6475	15,4	5,3
0,648	12,1	2,1
0,6485	9,7	-0,3
0,649	8,3	-1,9
0,6495	7,7	-3,1
0,65	7,9	-4,3
0,6505	8,8	-5,4
0,651	10,7	-5,9
0,6515	13,6	-5,2
0,652	17,1	-3,0
0,6525	20,2	0,0
0,653	21,9	3,1
0,6535	21,8	5,3
0,654	19,6	6,1
0,6545	15,7	5,3
0,655	11,1	3,7
0,6555	6,9	2,1
0,656	4,1	1,3
0,6565	3,0	1,4
0,657	3,7	2,3
0,6575	5,2	3,8
0,658	6,4	5,5
0,6585	6,6	6,9
0,659	5,8	7,3
0,6595	4,1	7,1
0,66	2,1	6,6
0,6605	0,6	6,4
0,661	0,4	6,7
0,6615	1,8	7,6
0,662	4,8	9,2
0,6625	8,4	10,5
0,663	11,3	10,7
0,6635	12,1	8,8
0,664	10,5	4,9
0,6645	7,2	-0,3
0,665	4,0	-5,6
0,6655	1,8	-10,0
0,666	0,8	-12,9
0,6665	0,9	-14,2
0,667	1,8	-14,2
0,6675	3,2	-13,1
0,668	4,5	-11,5
0,6685	5,6	-9,6
0,669	6,3	-7,6
0,6695	6,9	-5,8
0,67	8,2	-4,4
0,6705	10,3	-3,8
0,671	12,1	-3,3
0,6715	11,6	-3,0
0,672	7,0	-2,6
0,6725	-1,2	-2,5
0,673	-10,9	-2,6
0,6735	-20,0	-2,6
0,674	-26,7	-2,1
0,6745	-30,4	-0,9
0,675	-31,3	0,9
0,6755	-30,2	3,1
0,676	-27,6	5,2
0,6765	-23,7	6,9
0,677	-17,8	8,2
0,6775	-9,8	9,5
0,678	-1,0	11,3
0,6785	7,3	13,0
0,679	13,8	13,9
0,6795	18,3	13,5
0,68	21,0	12,3
0,6805	23,2	11,1
0,681	26,5	10,7
0,6815	32,2	11,0
0,682	40,1	11,6
0,6825	48,5	11,9
0,683	53,9	11,3
0,6835	53,0	9,5
0,684	45,5	7,0
0,6845	34,0	4,2
0,685	21,8	1,0
0,6855	11,0	-3,3
0,686	2,1	-8,7
0,6865	-4,4	-14,0
0,687	-7,6	-17,7
0,6875	-7,6	-18,9
0,688	-5,3	-17,8
0,6885	-1,9	-15,2
0,689	1,8	-11,8
0,6895	6,0	-8,4
0,69	10,7	-5,4
0,6905	15,5	-3,2
0,691	19,7	-1,7
0,6915	23,2	-0,6
0,692	26,4	0,5
0,6925	29,7	2,2
0,693	33,4	4,5
0,6935	37,0	7,2
0,694	39,7	9,8
0,6945	40,6	11,8
0,695	39,8	13,1
0,6955	37,8	13,5
0,696	34,9	12,3
0,6965	31,6	9,7
0,697	28,2	6,0
0,6975	24,8	2,1
0,698	21,6	-1,6
0,6985	18,6	-4,8
0,699	16,3	-7,0
0,6995	15,1	-7,8
0,7	14,8	-6,9
0,7005	15,3	-5,1
0,701	15,4	-4,1
0,7015	14,8	-4,9
0,702	12,9	-7,8
0,7025	10,0	-11,3
0,703	6,5	-14,3
0,7035	3,2	-16,1
0,704	0,8	-16,5
0,7045	-0,2	-15,9
0,705	-1,1	-15,0
0,7055	-3,1	-14,3
0,706	-6,3	-13,8
0,7065	-9,3	-12,7
0,707	-10,3	-10,4
0,7075	-8,8	-7,2
0,708	-5,4	-4,0
0,7085	-1,4	-1,8
0,709	2,4	-1,0
0,7095	5,9	-1,3
0,71	9,5	-2,1
0,7105	13,3	-2,8
0,711	16,0	-3,3
0,7115	15,7	-3,3
0,712	11,5	-3,2
0,7125	4,2	-3,4
0,713	-3,9	-4,5
0,7135	-10,7	-6,7
0,714	-14,9	-9,6
0,7145	-16,1	-12,4
0,715	-14,8	-14,1
0,7155	-11,7	-14,3
0,716	-7,7	-13,3
0,7165	-3,2	-11,8
0,717	0,8	-11,1
0,7175	3,3	-11,9
0,718	4,3	-14,2
0,7185	5,1	-16,6
0,719	7,6	-17,6
0,7195	11,9	-16,6
0,72	16,9	-14,5
0,7205	21,5	-12,4
0,721	25,8	-11,1
0,7215	30,2	-10,9
0,722	34,3	-11,6
0,7225	37,1	-13,0
0,723	37,8	-14,3
0,7235	36,6	-14,9
0,724	34,4	-14,6
0,7245	31,7	-13,7
0,725	28,8	-12,5
0,7255	25,9	-11,4
0,726	23,2	-10,3
0,7265	20,3	-9,2
0,727	16,3	-8,2
0,7275	10,2	-7,6
0,728	2,3	-7,5
0,7285	-5,3	-7,8
0,729	-10,4	-7,9
0,7295	-11,3	-7,5
0,73	-8,3	-6,7
0,7305	-2,8	-5,9
0,731	3,5	-5,7
0,7315	9,8	-6,1
0,732	15,6	-6,8
0,7325	20,6	-7,3
0,733	24,2	-7,5
0,7335	26,0	-7,2
0,734	25,8	-6,6
0,7345	24,0	-6,2
0,735	21,8	-6,4
0,7355	19,5	-6,9
0,736	17,2	-7,2
0,7365	14,3	-7,3
0,737	10,9	-7,3
0,7375	7,8	-7,0
0,738	4,9	-6,9
0,7385	1,2	-7,6
0,739	-4,3	-9,6
0,7395	-11,5	-12,8
0,74	-18,9	-16,2
0,7405	-24,8	-18,4
0,741	-27,0	-18,8
0,7415	-24,6	-16,9
0,742	-17,7	-13,5
0,7425	-7,8	-9,8
0,743	3,1	-6,7
0,7435	13,7	-4,6
0,744	22,7	-3,3
0,7445	29,3	-2,5
0,745	33,4	-1,9
0,7455	35,8	-1,3
0,746	37,9	-0,4
0,7465	40,4	0,7
0,747	43,0	1,7
0,7475	44,8	2,4
0,748	44,8	2,3
0,7485	42,2	1,3
0,749	36,9	-1,4
0,7495	29,8	-5,6
0,75	22,3	-10,7
0,7505	16,1	-15,1
0,751	12,4	-17,8
0,7515	11,5	-18,8
0,752	12,3	-18,8
0,7525	13,8	-18,8
0,753	14,4	-19,0
0,7535	13,7	-18,8
0,754	11,4	-18,2
0,7545	7,9	-17,3
0,755	4,0	-16,5
0,7555	0,5	-15,7
0,756	-2,6	-14,6
0,7565	-5,8	-12,7
0,757	-9,5	-10,3
0,7575	-13,3	-7,8
0,758	-15,6	-5,8
0,7585	-15,2	-4,6
0,759	-11,1	-4,2
0,7595	-4,0	-4,5
0,76	4,1	-5,3
0,7605	10,8	-6,5
0,761	14,9	-7,9
0,7615	16,4	-9,5
0,762	16,3	-11,5
0,7625	15,9	-13,6
0,763	16,5	-15,3
0,7635	18,6	-16,0
0,764	22,1	-15,7
0,7645	25,8	-14,6
0,765	28,3	-13,0
0,7655	28,6	-11,8
0,766	27,1	-11,1
0,7665	25,0	-10,8
0,767	23,3	-10,2
0,7675	22,3	-8,9
0,768	22,2	-7,1
0,7685	22,6	-5,4
0,769	23,3	-4,2
0,7695	23,7	-3,6
0,77	23,4	-3,8
0,7705	22,1	-4,9
0,771	20,0	-6,5
0,7715	17,9	-8,4
0,772	15,8	-10,7
0,7725	12,8	-13,5
0,773	7,8	-16,5
0,7735	1,0	-18,9
0,774	-5,8	-19,7
0,7745	-10,5	-18,2
0,775	-11,9	-14,6
0,7755	-9,7	-10,2
0,776	-4,9	-6,3
0,7765	0,9	-3,9
0,777	5,8	-3,2
0,7775	8,9	-3,9
0,778	10,2	-5,8
0,7785	9,9	-8,5
0,779	9,2	-11,5
0,7795	9,7	-14,1
0,78	13,4	-15,4
0,7805	20,8	-15,2
0,781	29,5	-14,1
0,7815	36,0	-12,7
0,782	38,1	-11,3
0,7825	35,9	-10,3
0,783	30,7	-10,2
0,7835	23,7	-11,7
0,784	16,5	-14,9
0,7845	10,7	-19,3
0,785	7,6	-23,8
0,7855	8,0	-27,4
0,786	11,1	-29,4
0,7865	14,9	-29,9
0,787	17,3	-29,2
0,7875	17,7	-27,6
0,788	17,3	-24,7
0,7885	17,6	-20,7
0,789	19,0	-16,1
0,7895	21,0	-11,7
0,79	22,0	-7,9
0,7905	20,1	-4,6
0,791	14,8	-1,4
0,7915	7,3	1,8
0,792	0,0	5,0
0,7925	-5,2	8,1
0,793	-8,0	10,3
0,7935	-9,1	10,6
0,794	-9,2	8,7
0,7945	-8,1	5,1
0,795	-5,6	1,3
0,7955	-1,4	-1,6
0,796	4,1	-3,6
0,7965	9,5	-5,2
0,797	14,1	-7,1
0,7975	18,3	-9,1
0,798	23,7	-10,3
0,7985	30,4	-10,6
0,799	35,8	-10,9
0,7995	37,3	-13,0
0,8	34,5	-17,3
0,8005	30,0	-22,3
0,801	26,6	-26,0
0,8015	25,6	-27,6
0,802	26,7	-27,8
0,8025	28,5	-27,9
0,803	28,7	-28,8
0,8035	25,6	-30,8
0,804	19,8	-33,2
0,8045	13,2	-34,8
0,805	7,1	-35,1
0,8055	2,3	-33,8
0,806	-1,0	-31,3
0,8065	-2,8	-28,4
0,807	-3,3	-25,4
0,8075	-3,0	-22,9
0,808	-2,3	-21,1
0,8085	-2,1	-20,2
0,809	-3,5	-19,8
0,8095	-6,9	-19,5
0,81	-11,3	-18,8
0,8105	-15,0	-17,7
0,811	-16,4	-16,3
0,8115	-14,8	-14,6
0,812	-10,4	-12,8
0,8125	-3,9	-10,9
0,813	3,5	-8,9
0,8135	10,6	-6,8
0,814	16,6	-4,8
0,8145	20,9	-3,0
0,815	23,5	-1,9
0,8155	24,9	-1,8
0,816	26,1	-2,4
0,8165	27,8	-3,4
0,817	30,1	-4,4
0,8175	32,4	-5,1
0,818	34,1	-5,3
0,8185	34,5	-5,0
0,819	33,7	-4,3
0,8195	32,0	-3,8
0,82	30,7	-3,8
0,8205	30,7	-4,6
0,821	31,3	-6,2
0,8215	29,9	-8,2
0,822	24,2	-10,0
0,8225	14,4	-10,6
0,823	3,7	-9,8
0,8235	-4,6	-7,9
0,824	-8,4	-5,5
0,8245	-8,5	-3,2
0,825	-6,4	-1,5
0,8255	-3,6	-0,9
0,826	-0,9	-1,4
0,8265	1,3	-2,6
0,827	3,2	-4,1
0,8275	5,1	-5,3
0,828	7,7	-5,9
0,8285	11,3	-6,3
0,829	15,8	-7,0
0,8295	19,8	-8,3
0,83	21,0	-10,3
0,8305	18,5	-13,0
0,831	13,8	-16,5
0,8315	9,3	-20,3
0,832	7,5	-23,3
0,8325	9,0	-25,3
0,833	12,7	-26,8
0,8335	17,1	-27,9
0,834	21,2	-28,5
0,8345	24,2	-28,2
0,835	26,0	-27,0
0,8355	26,6	-25,6
0,836	25,8	-24,5
0,8365	23,9	-23,9
0,837	21,1	-23,7
0,8375	18,3	-23,3
0,838	16,2	-22,4
0,8385	15,1	-21,1
0,839	14,2	-20,0
0,8395	12,9	-19,3
0,84	11,6	-19,0
0,8405	10,7	-19,2
0,841	10,9	-19,7
0,8415	12,2	-19,7
0,842	14,5	-18,7
0,8425	16,9	-16,6
0,843	18,8	-13,8
0,8435	19,1	-11,0
0,844	17,2	-8,8
0,8445	13,3	-7,3
0,845	8,5	-6,4
0,8455	4,1	-5,7
0,846	1,0	-4,7
0,8465	0,1	-3,4
0,847	1,2	-2,1
0,8475	4,0	-1,6
0,848	7,6	-2,4
0,8485	10,9	-4,3
0,849	13,3	-6,5
0,8495	14,4	-8,5
0,85	14,7	-9,6
0,8505	15,0	-9,9
0,851	15,7	-9,8
0,8515	16,7	-10,0
0,852	17,6	-10,9
0,8525	17,8	-12,0
0,853	17,3	-13,3
0,8535	15,8	-15,2
0,854	13,5	-18,2
0,8545	11,2	-22,3
0,855	9,8	-26,1
0,8555	10,2	-28,3
0,856	11,8	-28,3
0,8565	14,2	-26,5
0,857	16,6	-23,5
0,8575	18,5	-20,4
0,858	19,6	-17,6
0,8585	19,5	-15,5
0,859	18,5	-14,1
0,8595	16,9	-13,4
0,86	15,5	-13,3
0,8605	14,7	-13,7
0,861	14,3	-14,1
0,8615	14,3	-14,1
0,862	14,4	-13,5
0,8625	14,4	-12,6
0,863	14,7	-11,4
0,8635	14,9	-10,4
0,864	15,0	-10,0
0,8645	14,6	-10,5
0,865	13,5	-12,1
0,8655	11,8	-14,5
0,866	9,8	-17,2
0,8665	8,2	-19,4
0,867	6,9	-21,0
0,8675	5,6	-21,8
0,868	3,6	-21,7
0,8685	1,2	-20,6
0,869	-1,1	-18,6
0,8695	-3,0	-16,5
0,87	-4,7	-14,6
0,8705	-6,5	-13,2
0,871	-8,5	-12,2
0,8715	-10,3	-11,8
0,872	-11,8	-12,4
0,8725	-12,6	-14,2
0,873	-12,4	-16,7
0,8735	-10,9	-19,2
0,874	-8,0	-20,7
0,8745	-3,7	-21,0
0,875	1,5	-20,1
0,8755	7,0	-18,6
0,876	12,3	-16,8
0,8765	16,8	-14,9
0,877	20,0	-13,3
0,8775	21,7	-11,8
0,878	21,7	-10,6
0,8785	20,7	-9,4
0,879	19,1	-8,5
0,8795	17,0	-8,3
0,88	15,5	-9,1
0,8805	15,8	-10,5
0,881	18,6	-11,8
0,8815	23,3	-12,8
0,882	27,8	-14,0
0,8825	31,1	-15,4
0,883	32,8	-17,0
0,8835	33,2	-18,4
0,884	32,5	-19,4
0,8845	30,9	-19,7
0,885	28,4	-19,2
0,8855	25,6	-17,8
0,886	23,3	-15,5
0,8865	22,8	-12,5
0,887	25,3	-9,4
0,8875	30,3	-6,7
0,888	34,9	-4,8
0,8885	35,4	-4,2
0,889	30,3	-4,4
0,8895	20,6	-4,8
0,89	9,2	-5,0
0,8905	-1,6	-4,9
0,891	-10,6	-5,4
0,8915	-17,0	-6,9
0,892	-20,6	-9,4
0,8925	-21,4	-12,4
0,893	-20,3	-15,6
0,8935	-18,4	-19,1
0,894	-16,6	-22,5
0,8945	-14,7	-25,1
0,895	-12,1	-25,8
0,8955	-8,6	-24,5
0,896	-4,6	-22,0
0,8965	-0,6	-19,7
0,897	3,8	-17,8
0,8975	8,9	-15,6
0,898	15,0	-12,7
0,8985	20,9	-9,2
0,899	25,4	-6,2
0,8995	27,8	-4,0
0,9	27,8	-2,9
0,9005	25,8	-2,9
0,901	22,3	-4,0
0,9015	18,0	-5,9
0,902	13,7	-7,9
0,9025	10,3	-9,4
0,903	8,0	-10,3
0,9035	5,6	-11,0
0,904	1,8	-12,2
0,9045	-3,7	-14,0
0,905	-9,9	-16,2
0,9055	-15,4	-18,0
0,906	-18,4	-18,8
0,9065	-18,2	-18,7
0,907	-14,8	-18,2
0,9075	-8,1	-17,9
0,908	1,5	-17,7
0,9085	12,3	-17,8
0,909	21,1	-18,8
0,9095	24,8	-21,1
0,91	23,4	-23,9
0,9105	18,8	-25,7
0,911	12,3	-25,2
0,9115	3,9	-22,4
0,912	-5,8	-18,0
0,9125	-15,4	-13,1
0,913	-23,1	-8,7
0,9135	-27,8	-5,9
0,914	-29,8	-5,5
0,9145	-29,0	-7,3
0,915	-25,2	-10,5
0,9155	-18,7	-13,8
0,916	-10,4	-16,0
0,9165	-1,6	-16,9
0,917	7,0	-16,3
0,9175	15,5	-14,4
0,918	24,5	-11,3
0,9185	33,7	-7,5
0,919	42,3	-3,5
0,9195	48,7	-0,0
0,92	51,9	2,5
0,9205	52,0	3,8
0,921	49,3	3,3
0,9215	44,2	0,7
0,922	37,1	-4,0
0,9225	29,4	-9,8
0,923	23,0	-15,2
0,9235	18,5	-19,2
0,924	15,6	-22,0
0,9245	13,7	-24,0
0,925	12,7	-25,1
0,9255	12,5	-25,3
0,926	12,4	-24,6
0,9265	11,6	-23,3
0,927	9,8	-21,7
0,9275	7,5	-20,1
0,928	5,4	-18,6
0,9285	2,9	-17,6
0,929	-0,5	-17,1
0,9295	-4,7	-17,0
0,93	-8,8	-16,7
0,9305	-12,0	-15,8
0,931	-14,2	-14,9
0,9315	-15,2	-13,9
0,932	-15,3	-13,0
0,9325	-15,2	-12,0
0,933	-15,7	-11,6
0,9335	-17,0	-12,1
0,934	-18,3	-13,3
0,9345	-18,4	-14,3
0,935	-16,4	-14,6
0,9355	-11,7	-14,3
0,936	-4,0	-13,6
0,9365	5,4	-12,6
0,937	14,5	-11,8
0,9375	20,8	-11,2
0,938	23,2	-11,3
0,9385	22,3	-11,8
0,939	19,8	-12,3
0,9395	17,0	-12,3
0,94	15,0	-11,7
0,9405	13,6	-10,5
0,941	12,6	-9,6
0,9415	11,8	-9,6
0,942	11,5	-10,7
0,9425	11,8	-12,5
0,943	12,4	-14,3
0,9435	13,1	-15,3
0,944	13,6	-15,2
0,9445	13,5	-13,8
0,945	12,6	-12,3
0,9455	10,5	-11,3
0,946	7,8	-11,6
0,9465	5,4	-12,8
0,947	4,0	-14,3
0,9475	3,6	-15,7
0,948	3,9	-16,8
0,9485	4,8	-17,7
0,949	6,1	-18,3
0,9495	7,4	-18,5
0,95	8,3	-18,6
0,9505	8,2	-18,6
0,951	7,6	-18,6
0,9515	7,1	-18,4
0,952	7,5	-17,7
0,9525	8,8	-16,4
0,953	10,6	-14,8
0,9535	12,6	-13,2
0,954	15,1	-11,6
0,9545	18,2	-10,3
0,955	21,4	-9,2
0,9555	23,9	-8,3
0,956	24,8	-7,8
0,9565	23,7	-8,1
0,957	20,5	-9,5
0,9575	15,8	-12,0
0,958	10,6	-14,7
0,9585	6,2	-16,7
0,959	2,7	-17,1
0,9595	0,0	-16,0
0,96	-1,9	-14,0
0,9605	-2,9	-12,5
0,961	-3,3	-12,2
0,9615	-3,4	-13,3
0,962	-2,9	-15,2
0,9625	-0,9	-17,3
0,963	3,1	-18,9
0,9635	9,3	-19,8
0,964	16,6	-19,8
0,9645	23,1	-19,3
0,965	26,9	-18,6
0,9655	28,2	-17,9
0,966	28,3	-17,2
0,9665	28,6	-16,4
0,967	29,5	-15,2
0,9675	30,7	-13,4
0,968	31,8	-11,3
0,9685	32,4	-9,3
0,969	32,4	-8,1
0,9695	31,9	-8,0
0,97	30,6	-9,4
0,9705	29,0	-11,7
0,971	27,8	-13,7
0,9715	27,2	-14,8
0,972	26,6	-15,2
0,9725	25,3	-15,4
0,973	22,5	-15,9
0,9735	18,0	-16,7
0,974	12,1	-17,7
0,9745	6,2	-18,6
0,975	2,1	-19,2
0,9755	1,2	-19,4
0,976	3,8	-19,2
0,9765	8,9	-18,5
0,977	15,3	-17,5
0,9775	21,0	-15,9
0,978	24,3	-14,2
0,9785	23,9	-12,9
0,979	20,3	-12,8
0,9795	15,0	-13,8
0,98	10,2	-15,6
0,9805	6,8	-17,1
0,981	4,9	-17,3
0,9815	3,6	-16,1
0,982	2,0	-14,0
0,9825	0,3	-12,7
0,983	-0,4	-13,2
0,9835	1,3	-15,3
0,984	6,5	-18,1
0,9845	14,6	-20,0
0,985	23,6	-20,4
0,9855	31,3	-19,3
0,986	36,5	-16,8
0,9865	40,0	-13,6
0,987	42,4	-10,8
0,9875	43,3	-9,5
0,988	41,6	-10,0
0,9885	37,4	-12,1
0,989	32,2	-14,9
0,9895	27,6	-18,4
0,99	24,1	-22,3
0,9905	21,1	-26,3
0,991	17,8	-29,2
0,9915	14,4	-30,3
0,992	11,2	-29,7
0,9925	8,8	-27,9
0,993	7,3	-25,5
0,9935	7,2	-22,7
0,994	8,0	-19,7
0,9945	9,2	-16,4
0,995	10,1	-13,2
0,9955	10,7	-10,6
0,996	11,0	-9,4
0,9965	11,3	-9,6
0,997	11,8	-10,9
0,9975	12,6	-12,4
0,998	13,9	-13,6
0,9985	16,1	-14,2
0,999	18,9	-14,1
0,9995	21,8	-13,4
1	23,5	-12,7
1,0005	23,4	-12,1
1,001	20,7	-12,2
1,0015	14,9	-13,3
1,002	7,0	-15,8
1,0025	-0,9	-18,8
1,003	-6,9	-21,3
1,0035	-11,0	-22,4
1,004	-14,5	-22,3
1,0045	-18,0	-21,7
1,005	-20,6	-21,0
1,0055	-21,5	-20,4
1,006	-20,2	-20,0
1,0065	-16,6	-19,5
1,007	-11,0	-18,5
1,0075	-4,3	-16,5
1,008	2,7	-13,8
1,0085	9,0	-11,0
1,009	14,4	-8,3
1,0095	19,5	-5,8
1,01	25,0	-3,5
1,0105	30,7	-1,6
1,011	35,5	-0,4
1,0115	38,3	0,1
1,012	38,1	-0,3
1,0125	34,1	-1,5
1,013	26,3	-3,8
1,0135	16,4	-7,3
1,014	7,7	-11,8
1,0145	2,8	-16,3
1,015	2,2	-19,9
1,0155	4,5	-21,9
1,016	7,5	-22,3
1,0165	9,5	-21,5
1,017	10,0	-20,2
1,0175	9,8	-18,9
1,018	9,5	-17,5
1,0185	9,9	-15,9
1,019	11,0	-13,8
1,0195	12,8	-11,5
1,02	14,9	-9,4
1,0205	17,8	-7,8
1,021	21,2	-6,6
1,0215	25,0	-5,9
1,022	28,8	-5,7
1,0225	32,1	-5,9
1,023	35,1	-6,1
1,0235	37,8	-5,8
1,024	39,8	-5,1
1,0245	40,3	-4,3
1,025	38,5	-4,1
1,0255	34,4	-4,9
1,026	28,7	-7,1
1,0265	22,5	-10,8
1,027	16,9	-15,0
1,0275	13,5	-18,6
1,028	12,8	-20,2
1,0285	15,2	-19,3
1,029	19,7	-16,0
1,0295	24,8	-11,4
1,03	28,9	-6,7
1,0305	30,9	-3,4
1,031	29,7	-2,2
1,0315	25,7	-3,3
1,032	20,6	-6,3
1,0325	16,7	-10,1
1,033	15,3	-13,6
1,0335	15,5	-15,9
1,034	15,9	-16,5
1,0345	16,3	-15,4
1,035	17,1	-13,2
1,0355	18,2	-10,6
1,036	18,9	-8,7
1,0365	18,8	-8,0
1,037	18,4	-8,3
1,0375	18,4	-8,9
1,038	19,1	-9,8
1,0385	20,0	-11,3
1,039	20,4	-13,6
1,0395	20,5	-15,5
1,04	21,0	-15,8
1,0405	22,5	-14,1
1,041	24,5	-10,9
1,0415	26,6	-7,2
1,042	28,6	-3,3
1,0425	30,2	0,5
1,043	31,0	3,9
1,0435	30,4	6,3
1,044	28,7	7,7
1,0445	26,7	8,2
1,045	25,5	8,1
1,0455	26,2	7,6
1,046	28,1	6,2
1,0465	30,3	4,0
1,047	31,6	1,4
1,0475	31,7	-1,1
1,048	30,3	-3,9
1,0485	27,3	-7,4
1,049	22,8	-11,8
1,0495	17,8	-16,3
1,05	12,8	-20,0
1,0505	8,1	-22,8
1,051	3,7	-25,0
1,0515	0,1	-26,4
1,052	-2,7	-26,6
1,0525	-4,9	-25,9
1,053	-7,6	-24,6
1,0535	-11,6	-23,4
1,054	-16,8	-22,8
1,0545	-21,8	-22,5
1,055	-24,3	-21,9
1,0555	-23,3	-20,7
1,056	-19,1	-18,9
1,0565	-12,8	-17,1
1,057	-5,8	-15,3
1,0575	1,1	-13,4
1,058	7,3	-10,8
1,0585	12,7	-8,0
1,059	17,5	-5,5
1,0595	21,7	-3,9
1,06	24,4	-3,5
1,0605	25,3	-3,8
1,061	24,5	-4,1
1,0615	23,4	-3,9
1,062	23,4	-3,1
1,0625	24,9	-1,9
1,063	26,9	-0,8
1,0635	27,3	-0,5
1,064	24,2	-1,4
1,0645	17,7	-3,5
1,065	10,2	-6,3
1,0655	4,5	-9,1
1,066	2,0	-11,7
1,0665	2,7	-14,1
1,067	5,3	-16,0
1,0675	8,7	-17,0
1,068	12,2	-16,9
1,0685	15,6	-16,1
1,069	18,8	-14,9
1,0695	21,5	-13,8
1,07	23,9	-13,2
1,0705	26,3	-12,9
1,071	28,9	-12,8
1,0715	30,9	-12,5
1,072	30,6	-12,0
1,0725	27,0	-11,6
1,073	21,4	-11,3
1,0735	16,4	-10,7
1,074	13,9	-9,8
1,0745	14,0	-8,4
1,075	15,7	-6,8
1,0755	17,5	-5,5
1,076	17,8	-5,2
1,0765	15,3	-6,0
1,077	10,0	-7,6
1,0775	3,8	-9,5
1,078	-1,2	-10,8
1,0785	-3,9	-11,2
1,079	-5,0	-10,7
1,0795	-5,3	-10,1
1,08	-5,1	-9,8
1,0805	-4,0	-10,3
1,081	-1,9	-11,3
1,0815	1,4	-11,9
1,082	5,5	-11,6
1,0825	10,5	-9,8
1,083	16,5	-7,2
1,0835	22,9	-4,8
1,084	28,7	-3,5
1,0845	32,2	-3,6
1,085	32,7	-4,8
1,0855	30,8	-6,6
1,086	28,2	-8,3
1,0865	26,3	-9,8
1,087	25,5	-10,8
1,0875	25,1	-11,4
1,088	24,8	-11,8
1,0885	25,3	-12,2
1,089	26,9	-12,6
1,0895	28,6	-13,2
1,09	29,2	-13,9
1,0905	28,3	-14,8
1,091	26,9	-15,5
1,0915	25,6	-15,6
1,092	24,7	-14,9
1,0925	24,2	-13,5
1,093	23,5	-11,6
1,0935	22,6	-9,2
1,094	21,5	-6,4
1,0945	20,6	-3,4
1,095	20,4	-0,4
1,0955	21,1	2,5
1,096	22,6	5,1
1,0965	24,8	7,5
1,097	27,2	9,2
1,0975	29,7	10,1
1,098	32,4	10,2
1,0985	35,7	9,8
1,099	39,6	9,6
1,0995	43,4	9,9
1,1	46,2	10,6
1,1005	47,4	11,7
1,101	47,1	12,8
1,1015	45,4	13,8
1,102	42,0	14,0
1,1025	36,9	12,8
1,103	31,6	10,5
1,1035	27,0	7,4
1,104	23,1	3,5
1,1045	19,4	-1,5
1,105	16,1	-7,2
1,1055	13,8	-12,3
1,106	11,9	-15,9
1,1065	9,7	-18,1
1,107	6,5	-19,8
1,1075	2,9	-21,6
1,108	0,1	-23,1
1,1085	-0,8	-23,6
1,109	0,3	-22,6
1,1095	3,1	-20,5
1,11	6,6	-18,0
1,1105	9,5	-16,0
1,111	11,1	-14,7
1,1115	11,8	-13,7
1,112	12,6	-12,3
1,1125	14,3	-10,2
1,113	16,8	-7,6
1,1135	19,6	-4,9
1,114	21,9	-2,7
1,1145	23,4	-1,4
1,115	24,1	-1,3
1,1155	24,2	-1,9
1,116	23,8	-2,9
1,1165	23,3	-3,9
1,117	22,9	-4,6
1,1175	22,8	-4,9
1,118	22,8	-4,8
1,1185	22,7	-3,8
1,119	22,1	-2,2
1,1195	21,0	-0,3
1,12	19,7	1,5
1,1205	18,3	2,6
1,121	16,4	2,7
1,1215	13,8	1,5
1,122	10,7	-0,3
1,1225	7,7	-1,9
1,123	5,3	-2,8
1,1235	3,5	-3,3
1,124	2,2	-4,1
1,1245	1,4	-4,8
1,125	1,4	-5,1
1,1255	2,3	-5,0
1,126	3,6	-4,6
1,1265	4,8	-3,6
1,127	5,2	-2,5
1,1275	4,3	-2,1
1,128	2,1	-3,4
1,1285	0,0	-6,1
1,129	-0,5	-9,3
1,1295	0,7	-11,7
1,13	2,7	-13,3
1,1305	4,1	-14,0
1,131	4,7	-14,1
1,1315	5,1	-13,6
1,132	6,2	-12,6
1,1325	8,5	-11,1
1,133	12,0	-9,1
1,1335	15,9	-6,7
1,134	19,3	-4,4
1,1345	21,6	-2,5
1,135	22,6	-1,1
1,1355	23,0	-0,1
1,136	23,3	0,8
1,1365	23,5	1,8
1,137	23,4	3,0
1,1375	23,1	4,2
1,138	22,5	5,1
1,1385	21,6	5,4
1,139	19,8	4,6
1,1395	16,8	2,3
1,14	13,2	-1,3
1,1405	9,7	-4,8
1,141	7,6	-6,6
1,1415	7,2	-6,3
1,142	8,1	-4,6
1,1425	9,2	-3,0
1,143	9,5	-2,4
1,1435	8,4	-2,9
1,144	5,9	-3,8
1,1445	3,2	-4,7
1,145	2,2	-5,4
1,1455	4,6	-5,9
1,146	10,5	-6,6
1,1465	17,4	-7,9
1,147	21,3	-9,9
1,1475	19,9	-12,3
1,148	14,2	-14,5
1,1485	6,8	-15,9
1,149	0,3	-16,3
1,1495	-4,1	-15,6
1,15	-6,1	-14,0
1,1505	-5,4	-11,9
1,151	-2,3	-9,8
1,1515	3,2	-7,8
1,152	10,3	-5,7
1,1525	18,1	-3,5
1,153	25,6	-1,2
1,1535	32,5	1,1
1,154	38,3	3,3
1,1545	42,6	5,1
1,155	44,8	6,4
1,1555	45,3	7,4
1,156	45,3	8,7
1,1565	45,3	10,3
1,157	44,6	11,5
1,1575	42,0	11,1
1,158	36,5	8,4
1,1585	28,5	3,1
1,159	20,1	-3,8
1,1595	13,3	-10,3
1,16	8,8	-14,8
1,1605	5,7	-17,1
1,161	2,7	-17,7
1,1615	-0,2	-17,3
1,162	-2,3	-16,5
1,1625	-3,1	-15,4
1,163	-3,0	-14,3
1,1635	-2,7	-13,3
1,164	-1,9	-12,0
1,1645	-0,8	-10,2
1,165	-0,1	-8,1
1,1655	-0,6	-6,4
1,166	-2,3	-5,6
1,1665	-4,8	-5,8
1,167	-8,4	-6,8
1,1675	-14,1	-8,4
1,168	-22,0	-10,6
1,1685	-31,2	-13,3
1,169	-39,2	-15,7
1,1695	-44,0	-17,4
1,17	-44,9	-18,2
1,1705	-42,0	-18,2
1,171	-36,0	-17,7
1,1715	-28,2	-17,1
1,172	-20,4	-16,6
1,1725	-13,3	-16,5
1,173	-6,5	-16,2
1,1735	0,2	-15,2
1,174	6,4	-13,1
1,1745	11,5	-10,3
1,175	15,4	-6,9
1,1755	18,5	-3,4
1,176	21,5	0,3
1,1765	25,1	3,8
1,177	29,8	6,9
1,1775	36,1	9,5
1,178	43,5	11,5
1,1785	50,8	12,6
1,179	56,3	12,1
1,1795	58,0	9,5
1,18	55,3	4,8
1,1805	49,0	-0,9
1,181	41,5	-6,2
1,1815	35,0	-10,2
1,182	30,5	-12,5
1,1825	27,9	-13,5
1,183	26,2	-13,8
1,1835	24,2	-14,5
1,184	20,8	-16,5
1,1845	16,3	-19,8
1,185	12,0	-23,3
1,1855	9,3	-25,9
1,186	8,6	-27,0
1,1865	9,5	-26,5
1,187	11,3	-25,0
1,1875	13,5	-22,8
1,188	15,9	-20,2
1,1885	18,0	-17,7
1,189	19,3	-15,8
1,1895	20,0	-14,2
1,19	20,4	-12,5
1,1905	20,8	-10,6
1,191	21,1	-8,3
1,1915	20,3	-5,9
1,192	17,5	-4,0
1,1925	12,2	-3,5
1,193	4,6	-4,6
1,1935	-4,0	-6,6
1,194	-11,7	-8,1
1,1945	-16,8	-8,2
1,195	-18,8	-6,9
1,1955	-18,4	-5,0
1,196	-16,7	-3,5
1,1965	-14,0	-2,8
1,197	-11,1	-3,3
1,1975	-8,4	-4,6
1,198	-6,3	-6,4
1,1985	-4,5	-8,3
1,199	-2,5	-10,0
1,1995	-0,6	-11,3
1,2	0,7	-12,2
1,2005	1,3	-12,7
1,201	2,2	-12,5
1,2015	4,6	-12,1
1,202	8,9	-12,1
1,2025	14,1	-12,9
1,203	18,4	-14,5
1,2035	20,6	-15,9
1,204	20,7	-16,3
1,2045	20,3	-15,4
1,205	20,8	-13,8
1,2055	22,6	-12,2
1,206	23,9	-11,3
1,2065	22,8	-11,2
1,207	17,9	-12,0
1,2075	10,7	-12,8
1,208	4,0	-12,9
1,2085	0,1	-11,6
1,209	-0,4	-9,2
1,2095	1,6	-6,6
1,21	5,0	-4,5
1,2105	8,6	-3,3
1,211	11,7	-3,0
1,2115	13,9	-3,3
1,212	15,7	-4,0
1,2125	17,9	-4,4
1,213	21,0	-4,5
1,2135	24,7	-4,2
1,214	28,5	-3,7
1,2145	31,4	-3,4
1,215	32,7	-3,8
1,2155	31,9	-5,3
1,216	29,4	-7,9
1,2165	25,8	-11,2
1,217	21,5	-15,0
1,2175	17,0	-19,1
1,218	12,8	-23,0
1,2185	9,0	-25,8
1,219	6,2	-27,0
1,2195	4,2	-26,7
1,22	3,0	-25,4
1,2205	2,4	-24,1
1,221	1,8	-23,3
1,2215	1,0	-23,1
1,222	0,1	-23,0
1,2225	-0,7	-22,4
1,223	-0,9	-21,2
1,2235	-0,4	-19,5
1,224	0,8	-17,6
1,2245	2,2	-16,0
1,225	3,5	-14,7
1,2255	4,8	-13,5
1,226	6,0	-12,3
1,2265	6,7	-10,8
1,227	6,4	-9,4
1,2275	4,6	-8,2
1,228	2,1	-7,2
1,2285	0,3	-6,2
1,229	0,8	-5,4
1,2295	4,4	-5,0
1,23	11,2	-4,7
1,2305	20,3	-4,3
1,231	29,9	-3,4
1,2315	38,5	-2,3
1,232	45,5	-0,9
1,2325	50,6	0,6
1,233	52,8	1,9
1,2335	50,9	2,8
1,234	44,8	3,1
1,2345	36,5	3,1
1,235	28,2	2,5
1,2355	20,9	1,0
1,236	14,6	-2,1
1,2365	9,6	-6,7
1,237	6,3	-12,2
1,2375	4,2	-17,6
1,238	1,3	-22,7
1,2385	-3,7	-27,2
1,239	-9,8	-31,0
1,2395	-15,1	-33,6
1,24	-17,8	-34,8
1,2405	-17,8	-34,5
1,241	-15,6	-33,2
1,2415	-12,9	-31,1
1,242	-11,5	-28,7
1,2425	-12,8	-26,4
1,243	-16,7	-24,3
1,2435	-21,9	-22,0
1,244	-26,3	-19,4
1,2445	-29,0	-16,8
1,245	-29,9	-14,5
1,2455	-29,3	-12,8
1,246	-27,5	-11,8
1,2465	-24,8	-11,5
1,247	-21,6	-11,5
1,2475	-17,3	-11,5
1,248	-11,7	-11,6
1,2485	-5,4	-11,8
1,249	0,1	-12,8
1,2495	4,1	-14,4
1,25	6,7	-15,8
1,2505	8,7	-15,7
1,251	10,8	-13,8
1,2515	12,5	-10,8
1,252	13,1	-8,1
1,2525	12,6	-6,6
1,253	12,6	-6,8
1,2535	15,1	-8,1
1,254	20,7	-9,9
1,2545	28,1	-11,8
1,255	34,6	-13,7
1,2555	37,8	-15,4
1,256	37,2	-16,6
1,2565	33,7	-16,7
1,257	29,0	-16,0
1,2575	24,5	-14,8
1,258	20,3	-13,8
1,2585	15,9	-13,3
1,259	11,8	-13,4
1,2595	8,1	-13,9
1,26	5,2	-14,5
1,2605	3,0	-15,1
1,261	1,2	-15,7
1,2615	-0,4	-15,9
1,262	-2,2	-15,6
1,2625	-4,1	-14,4
1,263	-6,2	-12,8
1,2635	-8,3	-11,1
1,264	-10,0	-9,8
1,2645	-11,2	-9,5
1,265	-11,6	-10,1
1,2655	-11,3	-11,3
1,266	-9,9	-12,3
1,2665	-7,5	-12,5
1,267	-4,7	-11,6
1,2675	-2,6	-10,3
1,268	-2,0	-9,3
1,2685	-2,4	-9,0
1,269	-3,1	-9,0
1,2695	-3,8	-8,9
1,27	-4,7	-8,8
1,2705	-6,1	-9,0
1,271	-8,3	-10,2
1,2715	-11,2	-12,1
1,272	-13,1	-14,0
1,2725	-11,9	-15,3
1,273	-7,0	-15,7
1,2735	0,3	-15,3
1,274	7,7	-14,8
1,2745	14,2	-14,4
1,275	19,9	-14,3
1,2755	24,6	-14,4
1,276	27,2	-14,6
1,2765	26,8	-14,3
1,277	23,6	-13,8
1,2775	18,1	-13,6
1,278	11,6	-14,4
1,2785	5,6	-16,3
1,279	1,2	-19,2
1,2795	-0,8	-22,8
1,28	-0,4	-26,8
1,2805	2,8	-30,3
1,281	8,2	-32,3
1,2815	14,0	-32,9
1,282	17,6	-32,5
1,2825	17,1	-32,0
1,283	12,9	-31,9
1,2835	6,8	-32,3
1,284	1,2	-32,5
1,2845	-2,8	-31,7
1,285	-4,7	-29,7
1,2855	-5,3	-26,9
1,286	-5,3	-24,4
1,2865	-5,0	-22,8
1,287	-4,4	-22,1
1,2875	-3,8	-21,6
1,288	-3,4	-21,1
1,2885	-3,7	-21,3
1,289	-4,7	-22,6
1,2895	-5,8	-25,0
1,29	-5,2	-27,1
1,2905	-1,8	-27,5
1,291	4,7	-25,8
1,2915	13,2	-22,3
1,292	21,7	-18,3
1,2925	28,1	-14,8
1,293	31,8	-12,7
1,2935	33,5	-12,1
1,294	34,0	-12,4
1,2945	33,8	-12,9
1,295	33,2	-13,0
1,2955	32,0	-12,8
1,296	30,2	-12,3
1,2965	27,8	-11,5
1,297	25,8	-10,7
1,2975	24,6	-10,3
1,298	24,1	-10,4
1,2985	23,9	-10,9
1,299	23,7	-11,0
1,2995	22,7	-10,7
1,3	19,9	-10,3
1,3005	15,0	-9,9
1,301	9,2	-9,6
1,3015	4,0	-9,2
1,302	0,9	-8,6
1,3025	0,2	-8,3
1,303	0,7	-8,5
1,3035	1,1	-9,4
1,304	1,2	-10,8
1,3045	2,3	-12,1
1,305	5,9	-12,6
1,3055	11,7	-12,0
1,306	18,2	-10,6
1,3065	23,2	-8,7
1,307	25,0	-6,9
1,3075	23,3	-5,9
1,308	19,6	-5,7
1,3085	15,8	-6,5
1,309	12,5	-8,8
1,3095	8,5	-13,0
1,31	2,7	-18,2
1,3105	-3,8	-23,0
1,311	-8,8	-26,2
1,3115	-10,7	-27,9
1,312	-9,7	-28,5
1,3125	-6,9	-28,2
1,313	-3,2	-27,1
1,3135	0,8	-25,6
1,314	4,9	-24,3
1,3145	9,0	-23,3
1,315	12,8	-22,6
1,3155	15,7	-22,2
1,316	16,8	-22,2
1,3165	16,2	-22,6
1,317	14,8	-22,8
1,3175	13,5	-22,5
1,318	12,9	-21,4
1,3185	11,9	-19,7
1,319	9,9	-17,6
1,3195	7,0	-15,6
1,32	4,7	-14,1
1,3205	3,8	-13,1
1,321	4,3	-12,1
1,3215	5,2	-10,9
1,322	6,4	-9,6
1,3225	8,2	-8,3
1,323	10,4	-7,1
1,3235	12,5	-6,3
1,324	14,4	-5,6
1,3245	16,7	-4,8
1,325	19,5	-3,5
1,3255	22,3	-2,2
1,326	24,0	-1,4
1,3265	24,3	-1,7
1,327	23,8	-3,2
1,3275	22,8	-5,4
1,328	21,1	-8,0
1,3285	18,4	-11,1
1,329	14,8	-14,3
1,3295	10,4	-17,2
1,33	6,5	-19,3
1,3305	4,4	-20,8
1,331	4,7	-21,6
1,3315	6,7	-21,9
1,332	8,5	-21,6
1,3325	8,8	-20,9
1,333	7,4	-20,1
1,3335	5,2	-19,2
1,334	1,8	-18,5
1,3345	-2,8	-18,3
1,335	-8,5	-18,6
1,3355	-13,6	-18,5
1,336	-16,5	-17,4
1,3365	-16,5	-15,6
1,337	-14,6	-14,1
1,3375	-12,2	-14,1
1,338	-9,8	-15,2
1,3385	-6,8	-16,5
1,339	-2,3	-16,9
1,3395	4,3	-15,8
1,34	12,6	-13,3
1,3405	21,1	-9,8
1,341	28,6	-6,4
1,3415	34,7	-3,8
1,342	39,5	-2,8
1,3425	43,0	-3,8
1,343	45,0	-6,3
1,3435	45,6	-8,9
1,344	44,8	-10,8
1,3445	42,8	-11,4
1,345	40,3	-10,7
1,3455	37,4	-8,9
1,346	33,8	-6,5
1,3465	29,3	-3,9
1,347	24,0	-1,6
1,3475	18,9	0,3
1,348	14,1	1,3
1,3485	9,2	0,8
1,349	3,5	-1,6
1,3495	-2,4	-5,2
1,35	-7,2	-8,6
1,3505	-9,4	-10,5
1,351	-8,5	-11,1
1,3515	-4,9	-10,9
1,352	0,2	-10,3
1,3525	5,6	-9,6
1,353	10,7	-8,7
1,3535	15,9	-8,1
1,354	22,2	-8,0
1,3545	28,9	-8,9
1,355	34,5	-11,0
1,3555	37,6	-13,7
1,356	38,8	-15,8
1,3565	39,3	-16,6
1,357	39,7	-16,6
1,3575	39,7	-16,7
1,358	38,8	-17,3
1,3585	37,3	-17,8
1,359	35,5	-17,4
1,3595	34,0	-16,1
1,36	32,4	-15,0
1,3605	30,2	-15,3
1,361	26,7	-17,3
1,3615	22,5	-20,5
1,362	18,6	-23,3
1,3625	16,1	-24,8
1,363	15,3	-24,6
1,3635	16,0	-23,1
1,364	17,6	-20,9
1,3645	18,8	-18,6
1,365	18,2	-16,7
1,3655	14,6	-15,4
1,366	8,7	-14,3
1,3665	2,4	-13,3
1,367	-2,4	-11,9
1,3675	-4,5	-9,9
1,368	-3,6	-7,3
1,3685	-0,3	-4,6
1,369	4,6	-2,5
1,3695	10,2	-1,5
1,37	15,8	-1,5
1,3705	20,8	-2,3
1,371	24,5	-3,5
1,3715	26,8	-4,7
1,372	28,0	-5,2
1,3725	29,3	-4,7
1,373	31,3	-2,9
1,3735	33,9	-0,3
1,374	36,2	2,0
1,3745	37,7	3,7
1,375	39,3	4,8
1,3755	42,3	5,3
1,376	47,3	4,2
1,3765	53,1	1,1
1,377	57,7	-3,9
1,3775	59,0	-9,7
1,378	56,2	-15,3
1,3785	49,9	-19,7
1,379	42,3	-22,3
1,3795	35,3	-23,0
1,38	30,1	-22,4
1,3805	26,0	-21,3
1,381	22,3	-20,1
1,3815	18,9	-18,9
1,382	16,5	-17,4
1,3825	15,2	-15,4
1,383	14,6	-13,2
1,3835	13,7	-10,9
1,384	11,5	-8,9
1,3845	7,8	-7,8
1,385	3,0	-7,4
1,3855	-1,8	-7,4
1,386	-5,6	-7,2
1,3865	-7,1	-6,6
1,387	-5,6	-5,7
1,3875	-1,2	-4,7
1,388	4,7	-3,7
1,3885	9,8	-2,7
1,389	12,8	-2,1
1,3895	13,9	-1,6
1,39	14,7	-1,1
1,3905	16,3	-0,3
1,391	19,1	0,7
1,3915	23,2	1,6
1,392	28,4	2,0
1,3925	33,6	1,7
1,393	37,5	0,2
1,3935	39,1	-2,5
1,394	38,5	-6,1
1,3945	36,2	-10,0
1,395	33,3	-13,5
1,3955	31,0	-15,7
1,396	29,7	-16,3
1,3965	28,8	-15,7
1,397	27,4	-14,8
1,3975	25,1	-14,5
1,398	22,6	-15,3
1,3985	21,1	-16,6
1,399	21,3	-17,3
1,3995	23,3	-17,1
1,4	26,2	-16,1
1,4005	28,8	-15,0
1,401	30,5	-14,0
1,4015	31,5	-13,0
1,402	32,2	-11,7
1,4025	32,8	-9,7
1,403	32,4	-7,5
1,4035	29,5	-6,0
1,404	23,6	-6,1
1,4045	15,6	-7,5
1,405	6,6	-9,7
1,4055	-2,5	-11,5
1,406	-10,5	-12,2
1,4065	-16,0	-11,1
1,407	-18,2	-8,6
1,4075	-17,3	-5,6
1,408	-13,8	-2,8
1,4085	-8,4	-0,6
1,409	-2,0	1,3
1,4095	4,7	3,0
1,41	11,5	4,7
1,4105	18,6	5,8
1,411	25,8	5,9
1,4115	32,0	4,8
1,412	36,4	2,1
1,4125	38,9	-2,0
1,413	40,4	-6,5
1,4135	41,4	-10,3
1,414	42,4	-12,7
1,4145	43,8	-13,6
1,415	46,1	-13,6
1,4155	49,2	-13,1
1,416	52,2	-12,3
1,4165	54,8	-11,6
1,417	57,1	-11,1
1,4175	58,3	-11,0
1,418	57,5	-11,4
1,4185	53,8	-12,4
1,419	47,9	-13,6
1,4195	41,0	-14,6
1,42	34,0	-15,2
1,4205	27,1	-15,6
1,421	20,7	-16,1
1,4215	14,8	-17,0
1,422	9,5	-18,3
1,4225	4,9	-19,8
1,423	1,5	-20,9
1,4235	-0,2	-20,9
1,424	0,2	-19,3
1,4245	2,3	-16,1
1,425	5,5	-11,7
1,4255	9,2	-7,1
1,426	12,8	-2,9
1,4265	15,8	0,5
1,427	18,3	2,7
1,4275	20,7	3,8
1,428	23,5	3,8
1,4285	26,5	2,4
1,429	28,3	-0,6
1,4295	27,8	-4,7
1,43	25,8	-8,6
1,4305	24,1	-11,5
1,431	23,7	-13,7
1,4315	25,3	-15,1
1,432	29,1	-15,9
1,4325	34,5	-16,0
1,433	39,1	-15,9
1,4335	40,8	-15,9
1,434	38,8	-16,0
1,4345	34,5	-16,0
1,435	29,7	-15,6
1,4355	25,7	-14,7
1,436	22,8	-13,5
1,4365	21,0	-11,9
1,437	19,8	-10,2
1,4375	19,2	-8,4
1,438	19,8	-6,5
1,4385	22,4	-4,1
1,439	27,1	-1,0
1,4395	33,0	2,4
1,44	39,0	5,5
1,4405	44,1	7,7
1,441	48,1	9,1
1,4415	51,3	10,3
1,442	53,3	11,4
1,4425	53,8	12,2
1,443	52,1	11,7
1,4435	48,6	9,8
1,444	44,9	7,1
1,4445	42,6	4,7
1,445	41,6	3,1
1,4455	40,3	1,9
1,446	36,8	-0,1
1,4465	29,8	-4,1
1,447	20,3	-10,0
1,4475	11,0	-16,2
1,448	3,8	-20,5
1,4485	-1,0	-22,6
1,449	-4,4	-23,2
1,4495	-8,1	-23,4
1,45	-12,4	-23,5
1,4505	-17,2	-23,8
1,451	-21,4	-24,0
1,4515	-23,9	-24,1
1,452	-23,3	-23,7
1,4525	-18,9	-22,4
1,453	-11,1	-20,2
1,4535	-1,8	-17,5
1,454	6,5	-15,0
1,4545	12,2	-13,0
1,455	15,0	-11,4
1,4555	15,2	-10,2
1,456	13,6	-9,6
1,4565	10,8	-9,6
1,457	8,4	-9,8
1,4575	7,8	-9,6
1,458	9,8	-8,7
1,4585	15,7	-6,6
1,459	25,7	-3,4
1,4595	38,2	0,5
1,46	49,4	3,8
1,4605	55,8	5,4
1,461	56,6	5,5
1,4615	53,8	5,1
1,462	49,8	5,3
1,4625	46,3	6,3
1,463	43,0	7,4
1,4635	38,7	7,8
1,464	32,5	6,8
1,4645	24,9	4,2
1,465	17,3	0,5
1,4655	10,9	-3,6
1,466	6,4	-7,7
1,4665	4,3	-11,7
1,467	5,1	-15,4
1,4675	8,4	-18,8
1,468	12,3	-22,0
1,4685	14,7	-25,2
1,469	15,1	-27,7
1,4695	14,7	-28,6
1,47	14,9	-27,8
1,4705	16,4	-25,6
1,471	18,9	-22,8
1,4715	21,6	-19,7
1,472	23,5	-16,7
1,4725	24,0	-13,9
1,473	23,3	-11,3
1,4735	22,2	-8,9
1,474	21,6	-7,2
1,4745	22,0	-6,4
1,475	23,6	-6,2
1,4755	26,0	-6,2
1,476	28,3	-6,0
1,4765	29,9	-5,3
1,477	30,3	-4,3
1,4775	29,7	-2,9
1,478	28,0	-1,6
1,4785	25,3	-0,9
1,479	22,2	-1,0
1,4795	19,3	-2,0
1,48	16,2	-3,6
1,4805	12,3	-5,4
1,481	8,0	-6,5
1,4815	4,4	-6,4
1,482	2,7	-5,2
1,4825	3,0	-3,3
1,483	5,1	-1,1
1,4835	7,9	0,9
1,484	10,3	2,4
1,4845	11,8	3,3
1,485	12,5	3,9
1,4855	12,6	4,7
1,486	12,0	5,4
1,4865	10,2	5,0
1,487	7,4	2,7
1,4875	4,2	-1,6
1,488	1,2	-6,9
1,4885	-0,9	-12,0
1,489	-1,7	-15,4
1,4895	-0,8	-16,8
1,49	1,6	-16,3
1,4905	4,8	-14,8
1,491	8,4	-13,4
1,4915	12,3	-12,4
1,492	16,2	-11,8
1,4925	19,0	-11,3
1,493	19,5	-11,3
1,4935	17,3	-11,8
1,494	12,8	-12,5
1,4945	8,1	-13,0
1,495	4,6	-12,7
1,4955	3,3	-11,6
1,496	3,9	-10,0
1,4965	6,0	-8,8
1,497	8,8	-8,3
1,4975	11,7	-8,4
1,498	14,1	-8,0
1,4985	16,1	-6,8
1,499	17,3	-5,1
1,4995	17,7	-3,7
1,5	17,0	-3,1
1,5005	16,0	-3,2
1,501	15,6	-3,2
1,5015	16,4	-2,9
1,502	18,9	-2,6
1,5025	23,3	-2,4
1,503	29,7	-2,1
1,5035	36,6	-1,3
1,504	42,4	-0,0
1,5045	46,2	1,8
1,505	48,6	3,9
1,5055	50,6	5,8
1,506	52,6	7,2
1,5065	54,5	7,8
1,507	55,8	7,9
1,5075	55,3	7,3
1,508	51,5	6,1
1,5085	43,5	4,5
1,509	31,8	2,5
1,5095	17,8	-0,1
1,51	3,7	-3,6
1,5105	-8,0	-7,8
1,511	-15,6	-12,1
1,5115	-18,5	-15,2
1,512	-17,3	-16,5
1,5125	-12,8	-15,7
1,513	-5,9	-12,9
1,5135	2,5	-9,2
1,514	11,4	-5,5
1,5145	19,7	-2,7
1,515	26,5	-1,0
1,5155	32,3	0,0
1,516	37,5	1,3
1,5165	42,8	3,3
1,517	47,9	6,3
1,5175	52,1	10,2
1,518	54,3	13,8
1,5185	53,8	15,8
1,519	50,5	15,1
1,5195	44,6	11,0
1,52	36,4	3,8
1,5205	27,3	-5,6
1,521	19,1	-15,3
1,5215	13,0	-23,4
1,522	9,8	-28,4
1,5225	9,4	-30,0
1,523	10,8	-28,8
1,5235	12,3	-26,1
1,524	12,7	-23,0
1,5245	12,1	-20,3
1,525	11,3	-18,0
1,5255	10,8	-16,3
1,526	11,0	-14,8
1,5265	11,4	-13,2
1,527	11,8	-11,5
1,5275	12,1	-9,8
1,528	12,7	-8,2
1,5285	13,8	-6,9
1,529	15,2	-6,1
1,5295	16,3	-5,8
1,53	16,8	-5,8
1,5305	16,8	-5,9
1,531	16,5	-6,2
1,5315	16,0	-6,8
1,532	15,3	-7,8
1,5325	14,3	-9,0
1,533	12,9	-10,2
1,5335	11,6	-10,8
1,534	10,6	-10,7
1,5345	10,2	-9,9
1,535	10,1	-8,8
1,5355	10,4	-7,7
1,536	11,1	-6,8
1,5365	12,5	-6,2
1,537	15,2	-5,6
1,5375	19,5	-4,9
1,538	24,5	-4,1
1,5385	28,9	-3,1
1,539	31,9	-1,8
1,5395	33,4	-0,2
1,54	34,2	1,8
1,5405	34,6	3,8
1,541	35,0	5,3
1,5415	35,6	6,2
1,542	36,1	6,7
1,5425	36,1	7,0
1,543	35,4	7,0
1,5435	33,8	6,3
1,544	31,1	4,8
1,5445	27,3	3,1
1,545	22,3	1,8
1,5455	16,6	1,4
1,546	10,4	1,5
1,5465	4,3	1,1
1,547	-1,5	-0,3
1,5475	-6,1	-2,9
1,548	-9,2	-6,3
1,5485	-10,8	-9,3
1,549	-11,1	-11,1
1,5495	-10,5	-11,5
1,55	-9,6	-10,7
1,5505	-8,9	-9,1
1,551	-8,3	-6,9
1,5515	-6,9	-4,4
1,552	-3,8	-1,7
1,5525	1,3	1,0
1,553	8,0	3,7
1,5535	14,9	5,6
1,554	20,7	6,6
1,5545	24,9	7,0
1,555	28,4	7,4
1,5555	31,6	8,1
1,556	34,7	8,7
1,5565	37,5	8,7
1,557	39,4	8,0
1,5575	39,7	6,7
1,558	37,6	5,2
1,5585	32,5	3,8
1,559	25,0	2,4
1,5595	17,5	1,1
1,56	12,9	-0,1
1,5605	12,5	-0,9
1,561	14,9	-1,4
1,5615	17,4	-1,8
1,562	17,7	-3,0
1,5625	15,1	-5,4
1,563	10,9	-8,6
1,5635	7,9	-11,4
1,564	8,5	-12,8
1,5645	12,8	-12,9
1,565	18,8	-12,6
1,5655	23,9	-12,6
1,566	27,2	-12,8
1,5665	28,7	-12,8
1,567	29,2	-12,3
1,5675	29,2	-11,1
1,568	28,8	-9,6
1,5685	26,4	-8,3
1,569	21,3	-8,1
1,5695	14,1	-9,1
1,57	6,6	-10,6
1,5705	0,9	-12,1
1,571	-1,2	-12,9
1,5715	1,1	-12,7
1,572	7,1	-11,8
1,5725	15,0	-10,5
1,573	22,5	-8,9
1,5735	28,2	-6,8
1,574	31,6	-4,3
1,5745	32,3	-1,8
1,575	30,2	0,4
1,5755	25,8	1,4
1,576	20,5	0,7
1,5765	16,0	-1,5
1,577	13,7	-4,5
1,5775	13,7	-7,3
1,578	14,8	-9,1
1,5785	15,4	-9,7
1,579	14,4	-9,3
1,5795	12,3	-8,1
1,58	10,0	-6,9
1,5805	8,3	-6,3
1,581	7,4	-7,0
1,5815	7,6	-8,8
1,582	9,0	-11,2
1,5825	11,7	-13,4
1,583	15,3	-14,8
1,5835	18,8	-15,3
1,584	21,4	-15,2
1,5845	23,2	-14,5
1,585	25,3	-13,6
1,5855	28,8	-12,4
1,586	33,7	-11,5
1,5865	38,9	-10,7
1,587	43,0	-10,0
1,5875	45,4	-9,2
1,588	46,7	-8,1
1,5885	47,1	-7,0
1,589	46,9	-6,1
1,5895	46,3	-5,6
1,59	45,7	-5,2
1,5905	45,5	-4,7
1,591	45,6	-4,0
1,5915	45,2	-3,5
1,592	43,4	-4,2
1,5925	39,7	-6,1
1,593	34,4	-8,7
1,5935	28,9	-11,1
1,594	24,5	-12,8
1,5945	21,5	-13,9
1,595	19,0	-14,6
1,5955	15,7	-15,2
1,596	10,9	-16,0
1,5965	5,5	-16,8
1,597	1,3	-17,2
1,5975	-0,6	-17,3
1,598	-0,4	-17,2
1,5985	0,9	-17,2
1,599	2,8	-17,3
1,5995	5,0	-17,5
1,6	7,4	-17,5
1,6005	10,3	-17,0
1,601	13,3	-15,6
1,6015	15,7	-13,7
1,602	16,9	-12,1
1,6025	16,4	-11,8
1,603	14,6	-13,1
1,6035	12,2	-15,3
1,604	10,5	-17,6
1,6045	10,1	-18,9
1,605	10,5	-18,8
1,6055	11,3	-17,8
1,606	12,0	-16,0
1,6065	13,0	-14,2
1,607	14,8	-12,4
1,6075	17,6	-10,3
1,608	20,8	-8,1
1,6085	23,3	-6,1
1,609	23,9	-4,9
1,6095	22,8	-4,5
1,61	21,1	-4,4
1,6105	20,5	-4,3
1,611	21,7	-4,0
1,6115	23,2	-3,6
1,612	22,4	-3,8
1,6125	18,2	-4,7
1,613	11,4	-6,3
1,6135	4,6	-8,3
1,614	-0,4	-10,4
1,6145	-3,0	-12,6
1,615	-2,3	-14,5
1,6155	1,5	-15,9
1,616	6,8	-16,9
1,6165	10,9	-17,7
1,617	12,4	-18,4
1,6175	11,9	-18,6
1,618	11,3	-17,7
1,6185	11,5	-15,5
1,619	12,6	-12,9
1,6195	14,2	-10,5
1,62	15,8	-8,8
1,6205	16,8	-7,8
1,621	17,0	-7,1
1,6215	16,6	-6,4
1,622	16,2	-5,8
1,6225	15,5	-5,6
1,623	14,1	-5,6
1,6235	11,5	-5,5
1,624	8,4	-5,2
1,6245	6,3	-4,2
1,625	6,7	-2,3
1,6255	9,9	0,7
1,626	15,8	4,1
1,6265	22,9	7,1
1,627	29,5	9,3
1,6275	34,4	10,3
1,628	37,7	10,8
1,6285	40,7	11,2
1,629	44,0	12,1
1,6295	47,2	13,1
1,63	48,9	13,7
1,6305	48,2	12,8
1,631	45,1	10,0
1,6315	40,8	4,8
1,632	36,6	-2,3
1,6325	33,3	-10,5
1,633	31,9	-18,0
1,6335	32,4	-23,2
1,634	34,5	-25,7
1,6345	37,1	-26,1
1,635	38,4	-26,1
1,6355	37,2	-26,7
1,636	33,4	-27,9
1,6365	28,9	-28,7
1,637	25,3	-28,2
1,6375	23,2	-26,3
1,638	22,2	-23,6
1,6385	21,0	-21,2
1,639	18,9	-20,2
1,6395	15,9	-20,4
1,64	12,8	-20,5
1,6405	10,0	-19,8
1,641	6,9	-18,4
1,6415	1,8	-17,1
1,642	-5,7	-16,3
1,6425	-14,5	-15,9
1,643	-23,3	-15,6
1,6435	-30,9	-15,1
1,644	-36,9	-14,3
1,6445	-40,8	-13,2
1,645	-42,3	-12,2
1,6455	-41,5	-11,7
1,646	-38,5	-11,3
1,6465	-33,0	-10,9
1,647	-24,4	-10,2
1,6475	-13,3	-9,3
1,648	-1,3	-8,4
1,6485	9,6	-7,8
1,649	17,9	-7,9
1,6495	23,4	-9,3
1,65	27,4	-11,7
1,6505	31,2	-14,3
1,651	35,7	-15,9
1,6515	40,6	-15,5
1,652	44,5	-13,3
1,6525	45,7	-10,3
1,653	42,4	-7,7
1,6535	34,3	-6,8
1,654	23,1	-7,6
1,6545	12,0	-9,2
1,655	3,9	-10,0
1,6555	0,1	-9,4
1,656	0,3	-7,9
1,6565	3,3	-6,5
1,657	7,9	-5,8
1,6575	12,5	-5,6
1,658	16,9	-5,6
1,6585	21,5	-5,4
1,659	26,4	-4,9
1,6595	30,9	-4,6
1,66	33,6	-4,5
1,6605	34,1	-4,9
1,661	32,8	-5,5
1,6615	29,9	-5,9
1,662	25,4	-6,8
1,6625	19,8	-8,4
1,663	13,7	-11,0
1,6635	8,2	-13,8
1,664	3,3	-16,3
1,6645	-0,7	-18,6
1,665	-3,4	-20,8
1,6655	-4,0	-22,6
1,666	-2,6	-23,5
1,6665	-0,2	-23,5
1,667	1,8	-22,8
1,6675	2,8	-22,1
1,668	3,0	-21,4
1,6685	3,6	-20,5
1,669	5,0	-19,3
1,6695	7,1	-18,1
1,67	9,3	-17,1
1,6705	11,5	-15,9
1,671	13,6	-14,4
1,6715	16,4	-12,6
1,672	20,2	-10,4
1,6725	24,4	-8,2
1,673	27,1	-6,1
1,6735	26,4	-4,3
1,674	22,5	-2,9
1,6745	17,9	-2,0
1,675	15,1	-1,6
1,6755	15,1	-1,6
1,676	17,2	-1,8
1,6765	19,5	-1,6
1,677	20,4	-1,1
1,6775	19,5	-0,4
1,678	17,0	0,4
1,6785	14,1	1,3
1,679	12,3	2,3
1,6795	12,6	3,4
1,68	14,4	4,3
1,6805	15,8	4,3
1,681	15,0	3,0
1,6815	11,4	0,7
1,682	6,3	-1,9
1,6825	2,0	-3,9
1,683	0,4	-5,0
1,6835	2,1	-5,3
1,684	5,6	-5,2
1,6845	8,2	-5,1
1,685	8,6	-5,4
1,6855	7,1	-5,9
1,686	5,3	-6,4
1,6865	4,9	-6,9
1,687	7,1	-7,9
1,6875	11,0	-9,8
1,688	14,8	-12,3
1,6885	17,0	-14,8
1,689	17,4	-16,4
1,6895	16,8	-17,0
1,69	15,5	-16,4
1,6905	13,4	-15,1
1,691	10,3	-13,0
1,6915	6,5	-10,7
1,692	2,7	-8,5
1,6925	-0,6	-6,9
1,693	-3,0	-5,8
1,6935	-4,3	-4,8
1,694	-4,3	-3,4
1,6945	-3,0	-1,8
1,695	-0,9	0,0
1,6955	1,0	1,6
1,696	2,1	2,6
1,6965	2,7	2,8
1,697	3,3	2,4
1,6975	4,1	1,2
1,698	5,0	-0,7
1,6985	6,3	-2,5
1,699	8,1	-3,9
1,6995	10,0	-5,2
1,7	11,7	-6,5
1,7005	12,9	-7,7
1,701	13,8	-8,1
1,7015	14,1	-7,6
1,702	13,3	-6,9
1,7025	11,0	-6,8
1,703	7,8	-7,3
1,7035	4,7	-8,0
1,704	2,6	-8,8
1,7045	2,2	-9,3
1,705	3,5	-9,5
1,7055	6,1	-9,5
1,706	8,6	-9,3
1,7065	10,3	-9,2
1,707	10,9	-8,8
1,7075	10,7	-7,5
1,708	10,1	-5,2
1,7085	9,6	-1,9
1,709	9,2	1,6
1,7095	8,3	4,8
1,71	6,0	7,1
1,7105	2,2	8,6
1,711	-2,1	9,0
1,7115	-5,4	8,5
1,712	-6,0	7,6
1,7125	-2,9	6,8
1,713	3,1	6,5
1,7135	10,3	6,6
1,714	17,1	6,5
1,7145	22,0	5,5
1,715	24,3	2,6
1,7155	23,8	-2,4
1,716	21,6	-8,8
1,7165	19,4	-14,9
1,717	18,2	-18,8
1,7175	17,4	-20,3
1,718	16,1	-19,8
1,7185	13,1	-18,9
1,719	8,2	-18,3
1,7195	1,5	-18,2
1,72	-5,8	-18,5
1,7205	-12,1	-19,4
1,721	-16,0	-20,5
1,7215	-17,3	-21,2
1,722	-16,7	-20,8
1,7225	-15,3	-19,4
1,723	-14,2	-17,3
1,7235	-13,8	-15,3
1,724	-14,1	-13,5
1,7245	-14,6	-12,3
1,725	-14,2	-11,4
1,7255	-11,7	-10,4
1,726	-6,7	-9,2
1,7265	-0,2	-7,9
1,727	5,8	-6,9
1,7275	9,7	-6,4
1,728	11,3	-6,0
1,7285	11,6	-5,4
1,729	10,9	-4,3
1,7295	8,8	-3,1
1,73	4,7	-2,6
1,7305	-1,1	-3,1
1,731	-6,9	-4,4
1,7315	-11,0	-5,8
1,732	-12,7	-6,7
1,7325	-12,1	-6,9
1,733	-9,8	-6,4
1,7335	-6,2	-5,4
1,734	-1,8	-4,3
1,7345	2,8	-3,1
1,735	7,5	-2,2
1,7355	11,9	-1,5
1,736	16,3	-1,3
1,7365	20,6	-1,5
1,737	25,6	-2,0
1,7375	31,6	-2,6
1,738	38,4	-3,0
1,7385	44,6	-3,5
1,739	48,3	-4,5
1,7395	48,1	-6,5
1,74	43,4	-9,3
1,7405	35,0	-12,4
1,741	24,6	-15,3
1,7415	14,1	-18,2
1,742	5,3	-21,2
1,7425	-0,6	-23,9
1,743	-3,4	-25,4
1,7435	-4,2	-25,7
1,744	-4,5	-25,2
1,7445	-4,8	-24,3
1,745	-4,8	-23,7
1,7455	-4,1	-23,1
1,746	-2,6	-22,5
1,7465	-0,6	-21,5
1,747	1,6	-19,9
1,7475	3,2	-18,1
1,748	3,4	-16,6
1,7485	1,6	-15,6
1,749	-1,9	-14,8
1,7495	-5,9	-13,9
1,75	-9,0	-12,7
1,7505	-10,4	-11,4
1,751	-9,9	-10,5
1,7515	-7,5	-9,7
1,752	-3,5	-8,9
1,7525	1,4	-8,1
1,753	6,4	-7,8
1,7535	11,0	-8,2
1,754	15,2	-9,2
1,7545	19,1	-10,4
1,755	22,5	-11,4
1,7555	25,0	-11,5
1,756	26,7	-10,3
1,7565	27,8	-7,3
1,757	28,8	-3,1
1,7575	30,3	1,3
1,758	32,8	4,8
1,7585	36,1	7,1
1,759	39,1	7,8
1,7595	40,3	6,6
1,76	38,5	3,5
1,7605	33,8	-0,5
1,761	27,1	-3,7
1,7615	20,2	-5,0
1,762	14,3	-4,1
1,7625	9,7	-1,9
1,763	5,6	0,6
1,7635	1,4	2,2
1,764	-2,7	2,1
1,7645	-6,7	-0,1
1,765	-10,4	-4,1
1,7655	-13,1	-8,7
1,766	-14,2	-12,1
1,7665	-13,4	-13,7
1,767	-11,1	-13,8
1,7675	-8,1	-12,9
1,768	-5,2	-12,2
1,7685	-3,1	-12,3
1,769	-1,8	-13,7
1,7695	-0,9	-16,2
1,77	0,1	-19,2
1,7705	1,1	-22,1
1,771	2,0	-24,0
1,7715	2,3	-24,3
1,772	1,8	-23,0
1,7725	1,6	-20,8
1,773	3,0	-18,2
1,7735	6,6	-15,6
1,774	11,4	-13,4
1,7745	15,7	-11,7
1,775	18,1	-10,3
1,7755	19,0	-9,2
1,776	19,3	-8,3
1,7765	19,4	-8,0
1,777	19,6	-8,4
1,7775	19,7	-9,3
1,778	19,6	-10,4
1,7785	19,9	-10,9
1,779	20,4	-10,8
1,7795	20,6	-10,1
1,78	19,8	-9,5
1,7805	18,0	-9,5
1,781	16,2	-10,1
1,7815	15,8	-10,9
1,782	17,1	-11,5
1,7825	19,3	-11,6
1,783	20,6	-11,2
1,7835	18,8	-10,3
1,784	13,4	-8,9
1,7845	5,2	-7,1
1,785	-3,4	-5,1
1,7855	-9,9	-2,9
1,786	-13,3	-0,3
1,7865	-13,7	2,8
1,787	-11,8	6,0
1,7875	-7,7	9,1
1,788	-1,4	12,1
1,7885	6,0	14,4
1,789	12,2	15,2
1,7895	15,6	14,1
1,79	16,8	11,8
1,7905	17,9	9,1
1,791	20,2	6,6
1,7915	23,4	4,1
1,792	26,6	1,1
1,7925	29,0	-2,3
1,793	30,9	-5,4
1,7935	32,3	-7,7
1,794	32,7	-8,9
1,7945	31,9	-9,2
1,795	30,6	-9,0
1,7955	29,2	-8,4
1,796	27,1	-8,0
1,7965	22,9	-8,2
1,797	16,3	-9,1
1,7975	7,9	-10,4
1,798	-0,5	-12,0
1,7985	-7,7	-13,5
1,799	-13,0	-14,3
1,7995	-16,1	-14,1
1,8	-17,1	-12,5
1,8005	-16,2	-10,0
1,801	-13,1	-6,9
1,8015	-7,7	-3,4
1,802	-0,8	-0,1
1,8025	6,5	2,5
1,803	12,8	4,0
1,8035	17,5	4,4
1,804	20,2	4,0
1,8045	20,3	3,4
1,805	17,9	2,4
1,8055	14,0	0,3
1,806	9,6	-2,8
1,8065	4,9	-6,4
1,807	0,0	-9,3
1,8075	-4,4	-11,0
1,808	-6,7	-11,6
1,8085	-6,1	-11,5
1,809	-3,3	-11,5
1,8095	0,8	-11,9
1,81	5,6	-12,4
1,8105	10,6	-13,1
1,811	14,8	-13,8
1,8115	17,5	-14,6
1,812	18,3	-15,6
1,8125	17,5	-16,2
1,813	15,8	-16,4
1,8135	14,1	-16,2
1,814	12,9	-15,8
1,8145	12,4	-15,5
1,815	12,4	-15,2
1,8155	12,4	-14,9
1,816	12,2	-14,6
1,8165	11,1	-14,3
1,817	8,8	-14,0
1,8175	5,7	-13,5
1,818	2,9	-12,8
1,8185	1,6	-11,7
1,819	2,4	-10,6
1,8195	5,4	-9,9
1,82	9,6	-9,9
1,8205	13,4	-10,6
1,821	15,6	-11,4
1,8215	16,2	-12,1
1,822	15,8	-12,4
1,8225	15,2	-12,4
1,823	15,2	-11,4
1,8235	15,9	-9,2
1,824	16,7	-5,9
1,8245	16,3	-3,0
1,825	14,0	-2,0
1,8255	10,2	-3,2
1,826	6,2	-5,6
1,8265	2,9	-8,0
1,827	0,9	-9,7
1,8275	-0,1	-10,4
1,828	0,1	-10,3
1,8285	1,0	-9,5
1,829	2,2	-8,2
1,8295	3,0	-6,7
1,83	3,3	-5,5
1,8305	3,3	-4,6
1,831	4,1	-3,9
1,8315	6,5	-3,3
1,832	10,8	-2,7
1,8325	16,7	-2,3
1,833	23,1	-1,9
1,8335	28,8	-1,6
1,834	33,2	-1,7
1,8345	36,6	-2,2
1,835	39,7	-3,1
1,8355	42,6	-4,0
1,836	43,9	-5,0
1,8365	42,6	-6,4
1,837	38,8	-8,6
1,8375	33,3	-11,2
1,838	27,6	-13,3
1,8385	23,0	-14,5
1,839	20,0	-14,3
1,8395	18,1	-13,2
1,84	16,4	-11,8
1,8405	13,5	-10,9
1,841	8,7	-10,5
1,8415	2,7	-10,4
1,842	-2,9	-10,2
1,8425	-6,5	-9,7
1,843	-7,5	-9,0
1,8435	-6,1	-8,4
1,844	-3,2	-8,0
1,8445	0,3	-7,7
1,845	3,4	-7,4
1,8455	6,0	-7,3
1,846	8,1	-7,4
1,8465	9,6	-8,1
1,847	10,7	-9,4
1,8475	11,6	-10,8
1,848	12,7	-11,8
1,8485	14,1	-12,3
1,849	15,5	-12,6
1,8495	16,0	-12,8
1,85	14,8	-13,1
1,8505	11,8	-13,0
1,851	8,7	-12,2
1,8515	7,3	-10,5
1,852	8,2	-8,1
1,8525	11,3	-5,3
1,853	15,3	-2,0
1,8535	19,5	1,6
1,854	23,3	5,0
1,8545	26,5	7,7
1,855	28,8	8,6
1,8555	29,0	7,3
1,856	26,8	4,2
1,8565	22,7	0,2
1,857	18,5	-3,3
1,8575	15,8	-5,3
1,858	14,5	-5,4
1,8585	12,4	-4,3
1,859	7,1	-3,7
1,8595	-1,4	-4,7
1,86	-10,4	-7,4
1,8605	-16,5	-10,5
1,861	-17,6	-12,8
1,8615	-14,5	-14,0
1,862	-9,9	-14,6
1,8625	-6,2	-14,8
1,863	-4,3	-14,9
1,8635	-3,6	-14,5
1,864	-2,3	-13,3
1,8645	0,8	-11,5
1,865	5,5	-9,4
1,8655	11,0	-7,6
1,866	15,5	-6,8
1,8665	18,3	-7,3
1,867	19,0	-9,1
1,8675	18,2	-11,6
1,868	16,4	-14,3
1,8685	14,2	-16,3
1,869	12,1	-16,9
1,8695	10,8	-15,9
1,87	10,7	-13,6
1,8705	11,7	-10,9
1,871	13,4	-8,2
1,8715	15,2	-5,3
1,872	16,8	-2,3
1,8725	18,0	0,7
1,873	19,2	3,1
1,8735	21,1	4,4
1,874	24,3	4,4
1,8745	28,1	3,3
1,875	30,6	1,8
1,8755	30,1	0,3
1,876	26,0	-0,8
1,8765	19,3	-1,3
1,877	11,6	-1,7
1,8775	4,7	-2,3
1,878	-0,5	-3,6
1,8785	-4,0	-5,3
1,879	-6,7	-7,1
1,8795	-9,2	-8,8
1,88	-11,3	-10,7
1,8805	-11,8	-12,3
1,881	-9,5	-13,5
1,8815	-4,1	-13,9
1,882	3,7	-14,0
1,8825	11,5	-13,8
1,883	17,3	-13,6
1,8835	20,4	-13,2
1,884	21,6	-12,1
1,8845	22,5	-10,2
1,885	24,0	-7,5
1,8855	26,0	-4,5
1,886	27,8	-2,0
1,8865	28,1	-0,5
1,887	26,2	-0,0
1,8875	21,8	-0,8
1,888	15,2	-3,4
1,8885	7,0	-8,1
1,889	-1,5	-14,2
1,8895	-8,8	-19,7
1,89	-13,8	-22,7
1,8905	-16,0	-22,6
1,891	-16,3	-20,1
1,8915	-15,7	-16,4
1,892	-14,8	-13,0
1,8925	-13,9	-10,4
1,893	-13,0	-8,7
1,8935	-12,4	-7,8
1,894	-13,0	-7,8
1,8945	-15,9	-8,4
1,895	-21,3	-9,3
1,8955	-27,9	-9,9
1,896	-34,3	-10,3
1,8965	-39,4	-10,6
1,897	-42,6	-10,8
1,8975	-43,7	-10,9
1,898	-42,2	-10,4
1,8985	-37,8	-9,5
1,899	-30,7	-8,5
1,8995	-22,9	-7,8
1,9	-16,8	-7,8
1,9005	-13,6	-8,3
1,901	-12,2	-8,4
1,9015	-10,8	-7,7
1,902	-8,5	-6,0
1,9025	-5,8	-3,8
1,903	-3,0	-1,6
1,9035	-0,9	0,0
1,904	-0,0	0,7
1,9045	0,1	0,2
1,905	1,0	-1,0
1,9055	3,3	-2,5
1,906	5,3	-4,0
1,9065	4,8	-5,4
1,907	0,8	-6,7
1,9075	-5,4	-7,8
1,908	-12,1	-8,7
1,9085	-17,1	-8,8
1,909	-18,8	-7,4
1,9095	-16,6	-4,5
1,91	-11,5	-0,3
1,9105	-5,7	3,9
1,911	-0,8	6,9
1,9115	3,3	7,6
1,912	7,7	6,5
1,9125	12,8	4,8
1,913	18,1	3,6
1,9135	23,2	3,1
1,914	28,5	2,7
1,9145	34,8	2,1
1,915	42,0	1,2
1,9155	49,0	0,4
1,916	54,2	0,4
1,9165	56,5	1,2
1,917	56,0	2,1
1,9175	52,9	2,0
1,918	48,2	0,6
1,9185	43,6	-1,5
1,919	40,1	-3,1
1,9195	37,6	-4,2
1,92	34,4	-5,6
1,9205	29,3	-8,4
1,921	22,6	-12,5
1,9215	15,4	-16,8
1,922	8,9	-20,0
1,9225	3,4	-21,6
1,923	-1,6	-21,8
1,9235	-5,9	-21,3
1,924	-9,2	-20,3
1,9245	-10,8	-19,2
1,925	-10,9	-18,2
1,9255	-9,6	-17,4
1,926	-6,9	-16,4
1,9265	-2,9	-14,6
1,927	1,8	-12,2
1,9275	6,0	-9,6
1,928	8,9	-7,5
1,9285	10,6	-5,9
1,929	11,5	-4,7
1,9295	12,0	-3,6
1,93	11,6	-3,1
1,9305	10,3	-3,5
1,931	8,0	-5,0
1,9315	5,1	-7,0
1,932	1,4	-8,8
1,9325	-3,1	-9,8
1,933	-8,5	-10,1
1,9335	-14,4	-10,1
1,934	-20,2	-10,1
1,9345	-25,1	-10,0
1,935	-28,7	-9,5
1,9355	-30,4	-8,8
1,936	-29,5	-7,8
1,9365	-25,8	-6,8
1,937	-19,7	-5,8
1,9375	-12,1	-4,7
1,938	-3,8	-2,9
1,9385	4,3	-0,5
1,939	11,2	2,3
1,9395	16,1	5,0
1,94	19,0	6,9
1,9405	20,8	7,5
1,941	22,1	7,0
1,9415	22,8	5,7
1,942	22,4	3,8
1,9425	21,5	2,1
1,943	21,2	1,0
1,9435	21,9	0,8
1,944	23,3	1,3
1,9445	24,5	1,9
1,945	25,3	2,4
1,9455	25,4	2,6
1,946	24,1	2,5
1,9465	20,6	2,3
1,947	15,6	1,3
1,9475	10,9	-0,6
1,948	8,9	-3,4
1,9485	10,1	-6,4
1,949	13,5	-9,2
1,9495	16,5	-11,3
1,95	17,5	-13,0
1,9505	16,5	-13,8
1,951	14,3	-13,7
1,9515	11,4	-13,3
1,952	8,2	-13,4
1,9525	5,2	-14,0
1,953	3,6	-14,5
1,9535	3,8	-14,4
1,954	5,9	-14,0
1,9545	9,2	-13,5
1,955	13,1	-12,6
1,9555	16,8	-10,8
1,956	18,8	-7,7
1,9565	17,9	-3,8
1,957	14,1	0,1
1,9575	8,9	3,5
1,958	4,5	6,1
1,9585	2,0	8,6
1,959	1,4	10,9
1,9595	2,2	12,8
1,96	3,5	13,8
1,9605	4,9	13,3
1,961	6,7	12,1
1,9615	9,7	11,3
1,962	14,2	11,7
1,9625	19,7	12,8
1,963	25,0	13,7
1,9635	29,1	13,6
1,964	31,6	12,7
1,9645	33,0	11,3
1,965	33,7	9,1
1,9655	33,1	6,2
1,966	31,4	3,1
1,9665	28,9	0,5
1,967	25,9	-1,7
1,9675	22,8	-3,7
1,968	20,6	-5,9
1,9685	20,0	-7,8
1,969	20,9	-8,8
1,9695	21,6	-8,8
1,97	20,4	-7,6
1,9705	16,5	-5,5
1,971	9,9	-3,0
1,9715	1,5	-0,8
1,972	-7,5	0,5
1,9725	-15,6	0,9
1,973	-21,9	0,5
1,9735	-26,4	-0,2
1,974	-29,0	-0,7
1,9745	-29,8	-0,8
1,975	-29,0	-0,8
1,9755	-26,6	-0,6
1,976	-22,5	-0,3
1,9765	-16,3	0,4
1,977	-8,2	2,1
1,9775	1,2	4,5
1,978	10,3	7,2
1,9785	17,3	9,5
1,979	21,7	11,0
1,9795	24,4	11,4
1,98	27,1	10,2
1,9805	30,1	6,8
1,981	32,6	1,3
1,9815	32,5	-5,7
1,982	28,6	-13,0
1,9825	21,5	-19,7
1,983	13,2	-24,9
1,9835	6,0	-28,2
1,984	1,8	-28,9
1,9845	0,7	-27,2
1,985	1,5	-24,1
1,9855	3,0	-20,7
1,986	4,0	-18,0
1,9865	4,3	-15,8
1,987	4,5	-14,0
1,9875	4,8	-12,1
1,988	5,6	-10,5
1,9885	7,0	-9,2
1,989	9,1	-8,1
1,9895	11,5	-6,8
1,99	13,8	-4,7
1,9905	15,6	-1,9
1,991	16,9	1,1
1,9915	18,2	3,9
1,992	19,8	6,2
1,9925	21,7	7,5
1,993	23,2	7,6
1,9935	23,8	6,5
1,994	23,5	4,7
1,9945	22,7	2,7
1,995	21,5	0,9
1,9955	19,1	-0,3
1,996	15,5	-0,4
1,9965	12,0	0,7
1,997	9,9	2,7
1,9975	9,0	4,5
1,998	8,1	5,1
1,9985	6,5	4,2
1,999	4,5	2,1
1,9995	2,7	-1,0
2	1,3	-4,6
2,0005	0,2	-8,2
2,001	-0,8	-11,3
2,0015	-1,5	-13,2
2,002	-1,5	-13,8
2,0025	-0,4	-13,2
2,003	1,9	-11,7
2,0035	5,1	-9,8
2,004	8,8	-8,0
2,0045	12,2	-6,3
2,005	14,6	-5,1
2,0055	14,5	-4,7
2,006	11,3	-5,6
2,0065	5,7	-7,6
2,007	-0,8	-9,5
2,0075	-6,5	-10,3
2,008	-10,6	-9,6
2,0085	-13,3	-8,1
2,009	-14,8	-6,5
2,0095	-15,2	-5,3
2,01	-14,3	-4,3
2,0105	-12,7	-3,0
2,011	-10,8	-1,2
2,0115	-8,9	1,1
2,012	-7,0	3,3
2,0125	-5,2	4,8
2,013	-3,6	5,4
2,0135	-2,2	5,5
2,014	-0,9	5,3
2,0145	0,4	5,2
2,015	2,3	4,7
2,0155	5,6	3,9
2,016	11,6	3,6
2,0165	20,1	4,1
2,017	28,6	4,9
2,0175	34,1	5,2
2,018	35,5	4,4
2,0185	34,1	3,0
2,019	31,8	1,3
2,0195	29,6	-0,5
2,02	27,3	-2,2
2,0205	24,9	-4,0
2,021	22,7	-5,8
2,0215	20,9	-8,3
2,022	19,1	-11,6
2,0225	16,8	-14,9
2,023	14,2	-16,8
2,0235	12,2	-16,5
2,024	11,1	-14,0
2,0245	10,5	-10,7
2,025	9,6	-7,7
2,0255	8,0	-5,7
2,026	6,2	-4,3
2,0265	4,6	-3,1
2,027	3,7	-1,7
2,0275	3,4	-0,5
2,028	3,8	0,2
2,0285	4,6	0,1
2,029	5,1	-0,3
2,0295	4,3	-0,6
2,03	1,7	-0,8
2,0305	-2,8	-1,2
2,031	-7,8	-1,8
2,0315	-11,1	-2,9
2,032	-11,6	-3,9
2,0325	-9,5	-5,0
2,033	-6,6	-6,6
2,0335	-4,5	-8,4
2,034	-3,4	-9,9
2,0345	-2,7	-10,5
2,035	-2,4	-9,8
2,0355	-3,0	-8,4
2,036	-4,8	-7,1
2,0365	-6,4	-6,0
2,037	-6,1	-5,2
2,0375	-3,1	-4,4
2,038	2,3	-3,3
2,0385	9,8	-1,8
2,039	18,3	0,4
2,0395	25,4	3,1
2,04	29,2	6,0
2,0405	28,9	8,6
2,041	26,3	10,7
2,0415	23,6	12,2
2,042	21,6	13,2
2,0425	20,5	13,6
2,043	20,1	13,3
2,0435	19,5	11,9
2,044	17,3	8,8
2,0445	12,4	3,7
2,045	6,2	-2,7
2,0455	1,4	-8,6
2,046	0,8	-12,3
2,0465	4,9	-13,2
2,047	12,9	-11,8
2,0475	22,8	-9,5
2,048	32,4	-7,3
2,0485	40,2	-5,1
2,049	44,9	-2,9
2,0495	45,6	-0,9
2,05	41,6	-0,4
2,0505	33,5	-2,2
2,051	23,7	-6,2
2,0515	15,0	-11,5
2,052	9,2	-16,8
2,0525	6,6	-20,5
2,053	6,7	-22,0
2,0535	8,4	-21,3
2,054	10,5	-19,6
2,0545	11,9	-18,0
2,055	12,3	-17,3
2,0555	11,9	-17,1
2,056	10,9	-16,7
2,0565	9,0	-15,9
2,057	6,6	-14,6
2,0575	4,4	-12,9
2,058	3,1	-10,8
2,0585	2,8	-8,3
2,059	2,9	-5,3
2,0595	3,2	-1,9
2,06	3,7	1,8
2,0605	4,3	5,2
2,061	4,3	7,7
2,0615	3,5	9,3
2,062	2,7	10,4
2,0625	3,1	11,8
2,063	5,8	14,0
2,0635	10,7	16,4
2,064	17,3	18,5
2,0645	25,9	19,7
2,065	36,5	19,8
2,0655	48,8	19,0
2,066	60,9	17,8
2,0665	71,3	16,9
2,067	78,3	16,2
2,0675	80,7	15,0
2,068	77,3	12,2
2,0685	68,4	7,1
2,069	54,8	-0,3
2,0695	38,2	-8,8
2,07	21,8	-16,7
2,0705	8,9	-22,2
2,071	1,8	-24,6
2,0715	0,5	-24,5
2,072	2,6	-23,5
2,0725	5,8	-22,8
2,073	8,0	-23,0
2,0735	8,4	-23,9
2,074	7,4	-24,6
2,0745	5,7	-24,5
2,075	4,3	-23,6
2,0755	3,8	-22,1
2,076	4,1	-20,3
2,0765	5,0	-18,7
2,077	6,1	-17,4
2,0775	7,2	-16,6
2,078	8,3	-16,2
2,0785	9,2	-15,9
2,079	10,0	-15,7
2,0795	10,5	-15,2
2,08	10,5	-14,3
2,0805	9,9	-13,1
2,081	8,7	-11,8
2,0815	7,1	-10,7
2,082	5,6	-10,0
2,0825	4,5	-9,8
2,083	3,8	-9,8
2,0835	3,7	-9,8
2,084	4,3	-9,5
2,0845	5,4	-8,8
2,085	6,8	-7,6
2,0855	8,4	-6,1
2,086	10,8	-4,1
2,0865	14,8	-1,6
2,087	20,2	1,1
2,0875	25,6	3,7
2,088	29,7	5,9
2,0885	31,5	7,2
2,089	30,9	7,1
2,0895	28,0	5,6
2,09	23,5	2,8
2,0905	18,5	-0,2
2,091	14,5	-2,5
2,0915	12,7	-3,4
2,092	13,5	-3,0
2,0925	16,3	-1,9
2,093	19,2	-0,9
2,0935	20,6	-0,3
2,094	20,1	0,2
2,0945	18,8	0,8
2,095	18,1	2,0
2,0955	18,1	3,8
2,096	17,9	6,2
2,0965	17,0	8,5
2,097	15,8	9,9
2,0975	15,4	9,7
2,098	15,2	7,9
2,0985	14,4	5,2
2,099	12,7	2,1
2,0995	11,1	-0,4
2,1	10,5	-2,0
2,1005	11,3	-2,3
2,101	13,3	-1,3
2,1015	15,6	0,4
2,102	17,2	2,3
2,1025	17,0	3,6
2,103	14,3	3,8
2,1035	9,1	2,4
2,104	2,4	-0,3
2,1045	-4,1	-3,7
2,105	-9,3	-7,1
2,1055	-12,5	-10,1
2,106	-13,8	-12,1
2,1065	-13,9	-12,8
2,107	-13,0	-11,8
2,1075	-10,7	-9,3
2,108	-7,2	-6,2
2,1085	-3,7	-3,1
2,109	-1,5	-0,4
2,1095	-1,0	1,7
2,11	-1,6	3,4
2,1105	-2,8	4,7
2,111	-4,6	5,6
2,1115	-6,7	6,0
2,112	-8,3	6,1
2,1125	-8,8	6,0
2,113	-8,6	5,8
2,1135	-8,5	5,5
2,114	-10,0	4,7
2,1145	-13,7	3,2
2,115	-18,6	1,2
2,1155	-23,1	-0,7
2,116	-25,6	-1,8
2,1165	-25,6	-1,4
2,117	-23,0	0,3
2,1175	-17,9	3,1
2,118	-10,5	6,3
2,1185	-1,5	9,3
2,119	8,4	12,3
2,1195	18,3	15,6
2,12	27,1	18,7
2,1205	34,1	20,6
2,121	39,1	20,7
2,1215	42,8	19,3
2,122	46,2	17,3
2,1225	49,5	15,4
2,123	52,1	13,7
2,1235	52,6	11,4
2,124	50,0	7,8
2,1245	44,2	3,1
2,125	36,8	-1,3
2,1255	30,5	-3,7
2,126	27,0	-3,8
2,1265	25,8	-2,3
2,127	24,5	-0,7
2,1275	21,2	-0,3
2,128	15,5	-1,4
2,1285	8,4	-3,1
2,129	0,9	-4,2
2,1295	-6,6	-4,1
2,13	-13,8	-3,3
2,1305	-20,5	-2,5
2,131	-25,7	-2,1
2,1315	-28,3	-1,9
2,132	-27,7	-1,8
2,1325	-24,6	-1,7
2,133	-19,7	-1,2
2,1335	-13,1	0,0
2,134	-5,6	2,0
2,1345	1,1	4,0
2,135	5,6	5,4
2,1355	7,6	5,7
2,136	7,7	4,8
2,1365	7,2	3,2
2,137	7,0	1,8
2,1375	7,7	1,4
2,138	9,4	2,4
2,1385	11,2	4,3
2,139	11,7	6,0
2,1395	10,5	6,6
2,14	8,0	5,7
2,1405	5,8	3,2
2,141	4,6	-0,2
2,1415	4,5	-3,6
2,142	4,8	-6,4
2,1425	4,4	-8,1
2,143	3,1	-8,6
2,1435	1,3	-7,9
2,144	0,2	-6,8
2,1445	0,3	-5,8
2,145	1,8	-5,3
2,1455	3,8	-4,8
2,146	5,9	-3,7
2,1465	7,8	-2,0
2,147	9,1	-0,1
2,1475	9,8	1,5
2,148	10,0	2,5
2,1485	9,6	2,8
2,149	8,3	2,7
2,1495	5,5	2,4
2,15	0,9	2,6
2,1505	-5,1	3,4
2,151	-11,9	4,6
2,1515	-18,5	5,6
2,152	-23,8	6,1
2,1525	-27,0	6,1
2,153	-28,2	6,0
2,1535	-27,5	6,0
2,154	-25,1	6,3
2,1545	-20,8	6,9
2,155	-15,3	7,9
2,1555	-9,3	8,9
2,156	-3,5	9,8
2,1565	2,1	10,2
2,157	8,2	10,3
2,1575	14,7	10,3
2,158	20,4	10,7
2,1585	24,6	11,6
2,159	26,6	13,1
2,1595	26,4	14,2
2,16	24,2	13,5
2,1605	20,6	10,5
2,161	17,2	5,8
2,1615	14,9	1,3
2,162	13,2	-1,8
2,1625	11,2	-3,1
2,163	8,3	-3,2
2,1635	4,9	-2,8
2,164	1,3	-2,7
2,1645	-2,4	-3,0
2,165	-5,9	-4,0
2,1655	-8,6	-5,2
2,166	-9,8	-6,1
2,1665	-9,5	-6,3
2,167	-7,9	-5,9
2,1675	-5,8	-5,1
2,168	-3,8	-4,2
2,1685	-1,9	-3,4
2,169	-0,1	-2,5
2,1695	1,6	-1,2
2,17	3,3	0,7
2,1705	4,6	2,6
2,171	5,4	3,9
2,1715	5,7	4,5
2,172	5,6	4,5
2,1725	5,0	4,4
2,173	3,9	4,5
2,1735	2,1	4,8
2,174	-0,6	5,5
2,1745	-4,3	6,8
2,175	-8,3	8,9
2,1755	-12,6	11,9
2,176	-16,9	15,1
2,1765	-21,4	17,8
2,177	-26,0	19,0
2,1775	-30,1	18,5
2,178	-32,2	16,6
2,1785	-31,1	13,9
2,179	-26,9	11,5
2,1795	-22,3	9,7
2,18	-20,3	7,6
2,1805	-22,5	4,5
2,181	-27,6	0,3
2,1815	-32,3	-4,3
2,182	-33,8	-8,1
2,1825	-30,9	-10,2
2,183	-24,5	-10,0
2,1835	-16,3	-7,8
2,184	-8,4	-4,2
2,1845	-1,8	-0,1
2,185	4,3	3,8
2,1855	10,8	7,0
2,186	17,9	9,5
2,1865	24,6	11,0
2,187	29,8	11,5
2,1875	33,2	11,3
2,188	35,5	10,5
2,1885	37,9	9,5
2,189	40,9	8,3
2,1895	43,8	7,0
2,19	45,1	5,3
2,1905	43,4	3,3
2,191	38,9	1,7
2,1915	32,8	0,9
2,192	26,3	1,2
2,1925	20,1	2,0
2,193	14,5	2,8
2,1935	9,7	3,3
2,194	5,3	3,1
2,1945	0,7	2,1
2,195	-4,7	0,5
2,1955	-11,0	-1,1
2,196	-18,0	-1,7
2,1965	-24,4	-1,2
2,197	-28,6	0,2
2,1975	-29,7	1,8
2,198	-28,0	3,4
2,1985	-24,0	5,0
2,199	-18,1	6,5
2,1995	-10,8	7,2
2,2	-2,8	6,9
2,2005	5,2	5,8
2,201	12,3	4,7
2,2015	18,8	4,6
2,202	24,8	6,1
2,2025	30,1	8,8
2,203	34,4	12,1
2,2035	37,1	15,2
2,204	38,2	17,8
2,2045	38,4	19,5
2,205	38,3	19,8
2,2055	37,1	18,2
2,206	33,4	15,0
2,2065	27,0	11,4
2,207	19,6	8,6
2,2075	13,0	6,9
2,208	7,9	6,2
2,2085	3,1	5,7
2,209	-2,7	4,7
2,2095	-10,4	2,5
2,21	-19,6	-1,0
2,2105	-28,9	-5,3
2,211	-36,9	-9,6
2,2115	-42,2	-13,5
2,212	-43,4	-16,2
2,2125	-40,1	-17,2
2,213	-32,4	-16,3
2,2135	-22,0	-13,8
2,214	-11,7	-10,6
2,2145	-4,4	-7,4
2,215	-1,1	-4,7
2,2155	-1,1	-2,6
2,216	-2,6	-1,0
2,2165	-3,8	-0,1
2,217	-4,0	0,3
2,2175	-4,1	0,6
2,218	-5,5	0,8
2,2185	-8,9	0,9
2,219	-13,3	1,1
2,2195	-17,0	1,4
2,22	-18,8	1,8
2,2205	-18,7	2,1
2,221	-17,0	1,9
2,2215	-14,4	0,7
2,222	-11,6	-1,4
2,2225	-9,1	-3,6
2,223	-6,7	-4,7
2,2235	-3,3	-4,2
2,224	1,5	-2,1
2,2245	7,8	1,0
2,225	15,0	4,4
2,2255	22,3	7,6
2,226	28,2	9,8
2,2265	31,8	10,5
2,227	33,0	9,9
2,2275	32,6	8,4
2,228	31,0	6,8
2,2285	28,5	5,4
2,229	24,9	3,9
2,2295	20,2	2,3
2,23	15,0	0,3
2,2305	11,1	-1,7
2,231	9,8	-3,1
2,2315	11,0	-4,1
2,232	12,9	-5,0
2,2325	13,6	-6,2
2,233	12,2	-7,7
2,2335	9,4	-9,5
2,234	6,5	-11,2
2,2345	4,6	-12,5
2,235	4,0	-13,3
2,2355	3,8	-13,9
2,236	2,1	-15,2
2,2365	-1,5	-17,1
2,237	-5,8	-18,9
2,2375	-8,6	-19,5
2,238	-8,8	-18,5
2,2385	-6,7	-16,3
2,239	-3,5	-13,6
2,2395	-0,2	-10,9
2,24	2,7	-8,2
2,2405	5,0	-5,4
2,241	6,9	-2,4
2,2415	8,5	0,5
2,242	9,9	3,2
2,2425	11,4	5,3
2,243	12,9	6,4
2,2435	14,3	6,3
2,244	15,3	5,1
2,2445	16,2	3,4
2,245	17,5	2,1
2,2455	19,9	1,5
2,246	23,3	1,6
2,2465	26,8	1,9
2,247	29,6	1,8
2,2475	30,9	1,3
2,248	30,8	0,9
2,2485	30,0	0,8
2,249	28,7	0,6
2,2495	27,2	0,1
2,25	25,2	-0,9
2,2505	22,2	-2,3
2,251	18,1	-3,9
2,2515	13,4	-5,2
2,252	9,0	-6,2
2,2525	5,3	-6,9
2,253	2,1	-7,8
2,2535	-1,8	-9,3
2,254	-7,0	-11,3
2,2545	-12,7	-13,6
2,255	-17,3	-15,7
2,2555	-19,7	-17,2
2,256	-20,1	-17,7
2,2565	-19,0	-16,6
2,257	-17,2	-13,9
2,2575	-14,9	-10,2
2,258	-12,3	-6,4
2,2585	-9,2	-3,0
2,259	-5,2	-0,1
2,2595	-0,7	2,5
2,26	4,0	5,3
2,2605	7,9	8,5
2,261	10,3	11,7
2,2615	11,0	14,3
2,262	10,4	16,3
2,2625	9,8	17,7
2,263	10,5	18,8
2,2635	12,9	19,7
2,264	16,6	20,6
2,2645	20,4	21,5
2,265	23,9	21,9
2,2655	26,4	21,3
2,266	27,1	19,3
2,2665	25,3	16,1
2,267	21,0	12,3
2,2675	15,2	8,7
2,268	9,3	5,8
2,2685	4,5	3,4
2,269	1,2	0,8
2,2695	-0,9	-2,3
2,27	-1,6	-5,0
2,2705	-0,4	-7,0
2,271	2,4	-8,6
2,2715	5,3	-10,6
2,272	6,7	-13,1
2,2725	6,6	-15,1
2,273	6,3	-15,3
2,2735	6,8	-13,2
2,274	7,8	-9,6
2,2745	8,2	-5,7
2,275	7,1	-2,7
2,2755	4,7	-0,7
2,276	2,0	0,4
2,2765	0,4	1,2
2,277	0,7	1,8
2,2775	2,6	2,0
2,278	4,1	1,7
2,2785	2,9	0,8
2,279	-2,4	-0,3
2,2795	-10,9	-0,7
2,28	-19,7	0,0
2,2805	-25,9	1,7
2,281	-28,3	3,7
2,2815	-26,7	5,2
2,282	-21,6	5,8
2,2825	-13,5	6,1
2,283	-3,2	6,8
2,2835	8,5	8,0
2,284	20,4	9,6
2,2845	31,1	11,4
2,285	39,2	13,1
2,2855	44,4	14,6
2,286	47,3	16,2
2,2865	48,6	18,2
2,287	48,2	19,9
2,2875	45,4	20,1
2,288	40,0	17,4
2,2885	33,5	12,8
2,289	27,9	8,3
2,2895	24,4	5,4
2,29	21,8	3,7
2,2905	17,6	1,8
2,291	10,4	-1,5
2,2915	0,6	-5,8
2,292	-9,9	-10,3
2,2925	-18,9	-13,8
2,293	-25,4	-15,4
2,2935	-29,0	-15,2
2,294	-29,8	-13,3
2,2945	-28,2	-10,1
2,295	-25,0	-6,1
2,2955	-20,9	-1,9
2,296	-16,6	1,6
2,2965	-11,9	4,4
2,297	-7,2	6,7
2,2975	-2,9	8,4
2,298	0,4	9,6
2,2985	2,8	10,2
2,299	4,9	10,3
2,2995	7,6	10,5
2,3	10,9	10,4
2,3005	14,7	9,6
2,301	18,5	8,0
2,3015	21,8	6,0
2,302	24,4	4,4
2,3025	25,8	3,3
2,303	25,9	2,3
2,3035	25,0	1,2
2,304	22,9	-0,2
2,3045	19,7	-1,5
2,305	15,9	-2,5
2,3055	12,4	-3,0
2,306	10,2	-3,3
2,3065	9,1	-3,5
2,307	8,3	-3,9
2,3075	7,3	-4,5
2,308	6,4	-5,3
2,3085	6,1	-6,4
2,309	6,0	-8,1
2,3095	4,7	-10,0
2,31	0,8	-11,6
2,3105	-5,7	-11,9
2,311	-13,0	-10,6
2,3115	-19,2	-8,3
2,312	-23,0	-5,8
2,3125	-23,4	-3,4
2,313	-20,6	-1,7
2,3135	-15,3	-0,6
2,314	-8,5	-0,2
2,3145	-1,3	0,2
2,315	6,0	0,7
2,3155	12,5	1,3
2,316	18,3	2,2
2,3165	23,4	3,2
2,317	28,5	4,3
2,3175	33,3	5,5
2,318	37,3	6,7
2,3185	39,3	7,6
2,319	38,5	7,9
2,3195	34,5	7,0
2,32	28,4	4,6
2,3205	21,7	0,8
2,321	16,4	-3,9
2,3215	13,3	-8,7
2,322	11,8	-12,6
2,3225	11,1	-15,2
2,323	10,3	-16,1
2,3235	9,4	-15,6
2,324	8,8	-14,3
2,3245	8,3	-13,0
2,325	8,3	-12,0
2,3255	8,4	-11,1
2,326	8,9	-10,1
2,3265	9,5	-8,8
2,327	9,7	-7,4
2,3275	9,0	-6,6
2,328	7,0	-6,5
2,3285	3,3	-7,2
2,329	-1,3	-7,7
2,3295	-5,5	-7,7
2,33	-7,8	-7,0
2,3305	-7,7	-5,5
2,331	-5,6	-3,3
2,3315	-2,4	-1,2
2,332	0,8	0,3
2,3325	3,7	0,5
2,333	6,1	-0,0
2,3335	7,8	-1,2
2,334	8,9	-2,7
2,3345	9,5	-3,9
2,335	10,2	-4,2
2,3355	11,0	-3,3
2,336	11,7	-1,2
2,3365	12,0	1,3
2,337	11,3	3,3
2,3375	9,1	4,6
2,338	5,2	5,5
2,3385	0,7	6,3
2,339	-2,8	7,1
2,3395	-4,8	7,8
2,34	-6,0	8,4
2,3405	-7,8	8,7
2,341	-10,8	8,8
2,3415	-15,3	8,3
2,342	-21,0	7,2
2,3425	-26,8	5,4
2,343	-30,8	3,7
2,3435	-32,0	2,5
2,344	-30,2	2,1
2,3445	-26,2	2,5
2,345	-20,6	3,9
2,3455	-13,9	6,6
2,346	-6,8	10,2
2,3465	0,1	14,1
2,347	5,6	16,9
2,3475	8,5	17,6
2,348	8,6	15,6
2,3485	7,4	11,0
2,349	6,6	4,8
2,3495	6,6	-1,3
2,35	6,4	-5,9
2,3505	4,7	-8,7
2,351	1,5	-10,2
2,3515	-2,3	-11,3
2,352	-5,8	-12,8
2,3525	-7,8	-14,3
2,353	-7,7	-15,3
2,3535	-5,2	-15,3
2,354	-1,2	-14,2
2,3545	3,4	-12,2
2,355	7,3	-10,0
2,3555	9,7	-8,0
2,356	10,1	-6,5
2,3565	8,8	-4,9
2,357	6,6	-2,8
2,3575	4,8	-0,6
2,358	4,4	1,0
2,3585	6,0	1,5
2,359	9,4	0,9
2,3595	13,7	0,0
2,36	17,3	-0,5
2,3605	19,3	-0,2
2,361	19,3	0,8
2,3615	18,1	1,8
2,362	16,3	2,2
2,3625	14,3	1,7
2,363	12,5	0,5
2,3635	10,7	-0,7
2,364	8,9	-1,7
2,3645	7,0	-2,3
2,365	4,6	-2,5
2,3655	1,8	-2,6
2,366	-1,0	-3,2
2,3665	-3,2	-4,3
2,367	-5,2	-5,8
2,3675	-7,4	-7,4
2,368	-9,3	-8,8
2,3685	-9,6	-9,5
2,369	-7,8	-9,3
2,3695	-4,6	-8,0
2,37	-0,9	-6,0
2,3705	2,8	-4,2
2,371	6,2	-2,8
2,3715	9,4	-2,1
2,372	12,7	-1,8
2,3725	15,8	-1,7
2,373	19,1	-1,7
2,3735	22,5	-1,9
2,374	24,9	-2,6
2,3745	25,7	-3,7
2,375	25,5	-4,8
2,3755	25,3	-5,3
2,376	25,5	-4,8
2,3765	25,2	-3,5
2,377	23,4	-1,7
2,3775	20,6	0,0
2,378	17,2	1,3
2,3785	12,8	2,0
2,379	7,2	1,9
2,3795	0,8	1,0
2,38	-4,7	-0,2
2,3805	-7,6	-1,1
2,381	-7,3	-1,7
2,3815	-4,0	-2,1
2,382	1,6	-2,5
2,3825	8,1	-2,8
2,383	13,9	-3,0
2,3835	17,8	-3,3
2,384	19,4	-4,0
2,3845	19,2	-5,3
2,385	17,7	-7,0
2,3855	16,2	-8,4
2,386	15,5	-8,9
2,3865	15,8	-8,6
2,387	16,6	-8,0
2,3875	17,2	-7,8
2,388	18,0	-8,1
2,3885	19,4	-8,6
2,389	20,5	-9,3
2,3895	20,2	-10,3
2,39	18,4	-11,7
2,3905	16,3	-13,1
2,391	15,0	-14,4
2,3915	14,8	-15,4
2,392	14,5	-15,8
2,3925	13,5	-15,5
2,393	11,8	-14,4
2,3935	9,9	-13,1
2,394	7,8	-12,0
2,3945	5,7	-11,4
2,395	3,7	-11,1
2,3955	2,0	-11,1
2,396	0,6	-11,6
2,3965	-0,9	-12,6
2,397	-2,7	-14,3
2,3975	-4,8	-16,7
2,398	-7,1	-19,7
2,3985	-9,8	-22,9
2,399	-13,2	-25,6
2,3995	-17,3	-27,0
2,4	-22,1	-26,9
2,4005	-26,6	-25,6
2,401	-30,2	-23,9
2,4015	-31,8	-22,2
2,402	-30,7	-20,5
2,4025	-26,2	-18,3
2,403	-18,3	-15,4
2,4035	-8,5	-12,0
2,404	1,7	-9,1
2,4045	10,7	-7,3
2,405	17,8	-7,0
2,4055	23,0	-7,6
2,406	26,8	-8,6
2,4065	29,9	-9,0
2,407	33,0	-8,4
2,4075	36,1	-6,7
2,408	39,2	-4,3
2,4085	41,3	-1,9
2,409	41,6	0,2
2,4095	40,2	1,3
2,41	37,5	1,4
2,4105	34,4	0,6
2,411	31,0	-1,3
2,4115	27,2	-4,0
2,412	22,4	-7,4
2,4125	16,7	-11,2
2,413	10,4	-14,7
2,4135	3,9	-17,6
2,414	-2,4	-20,2
2,4145	-7,9	-22,8
2,415	-11,7	-25,0
2,4155	-13,1	-26,1
2,416	-11,8	-25,5
2,4165	-8,5	-23,2
2,417	-3,5	-19,5
2,4175	2,4	-14,7
2,418	8,2	-8,9
2,4185	12,9	-2,8
2,419	15,8	2,8
2,4195	17,0	7,1
2,42	17,3	9,5
2,4205	17,8	10,2
2,421	18,8	9,5
2,4215	19,8	7,8
2,422	20,0	5,2
2,4225	19,7	1,8
2,423	19,5	-1,9
2,4235	19,9	-5,3
2,424	21,0	-7,9
2,4245	22,2	-9,8
2,425	22,3	-11,5
2,4255	20,7	-13,4
2,426	17,5	-15,5
2,4265	13,7	-17,4
2,427	10,3	-19,0
2,4275	7,7	-20,3
2,428	5,9	-21,5
2,4285	4,8	-22,4
2,429	4,1	-22,6
2,4295	4,7	-22,2
2,43	6,6	-21,4
2,4305	9,0	-20,9
2,431	10,4	-21,1
2,4315	9,9	-22,2
2,432	8,2	-23,4
2,4325	6,6	-23,8
2,433	5,9	-23,2
2,4335	5,9	-21,5
2,434	5,9	-19,0
2,4345	5,5	-16,2
2,435	4,7	-13,0
2,4355	3,7	-9,8
2,436	2,3	-6,7
2,4365	-0,1	-4,3
2,437	-3,4	-3,1
2,4375	-6,9	-3,0
2,438	-10,1	-3,9
2,4385	-13,9	-5,5
2,439	-18,5	-7,4
2,4395	-23,0	-8,9
2,44	-25,4	-9,3
2,4405	-24,5	-8,3
2,441	-20,3	-5,8
2,4415	-13,7	-2,6
2,442	-5,9	1,0
2,4425	2,2	4,3
2,443	9,6	7,2
2,4435	16,0	9,4
2,444	20,8	10,8
2,4445	23,4	11,5
2,445	24,3	11,3
2,4455	24,8	10,6
2,446	26,2	9,3
2,4465	28,8	7,2
2,447	31,2	3,9
2,4475	32,1	-0,3
2,448	31,2	-4,8
2,4485	29,3	-8,8
2,449	27,9	-11,7
2,4495	27,9	-12,9
2,45	29,4	-12,5
2,4505	31,0	-10,4
2,451	31,4	-7,0
2,4515	30,5	-3,1
2,452	29,4	0,7
2,4525	29,3	3,9
2,453	29,9	5,9
2,4535	29,7	6,3
2,454	27,1	5,3
2,4545	21,8	3,7
2,455	15,5	2,3
2,4555	9,8	1,4
2,456	6,1	1,5
2,4565	4,3	2,8
2,457	4,2	5,3
2,4575	5,3	8,1
2,458	6,5	10,4
2,4585	7,1	11,5
2,459	7,0	11,2
2,4595	6,8	9,4
2,46	7,3	6,2
2,4605	9,2	2,3
2,461	12,1	-1,8
2,4615	14,4	-5,7
2,462	14,8	-9,4
2,4625	13,7	-12,6
2,463	12,8	-14,8
2,4635	13,0	-15,7
2,464	14,2	-15,7
2,4645	15,4	-15,2
2,465	16,0	-15,0
2,4655	15,9	-15,2
2,466	15,6	-15,6
2,4665	15,6	-15,8
2,467	15,7	-15,7
2,4675	15,5	-14,9
2,468	14,8	-13,6
2,4685	13,4	-11,7
2,469	11,9	-9,6
2,4695	10,7	-7,4
2,47	9,8	-5,1
2,4705	9,4	-2,5
2,471	9,3	0,3
2,4715	9,3	3,1
2,472	8,9	5,5
2,4725	8,1	7,4
2,473	7,4	8,6
2,4735	7,0	9,2
2,474	7,1	9,4
2,4745	8,2	9,8
2,475	10,8	10,9
2,4755	14,9	12,7
2,476	19,8	14,7
2,4765	24,4	16,3
2,477	27,8	17,5
2,4775	29,3	18,2
2,478	28,5	18,0
2,4785	25,8	16,7
2,479	21,2	14,2
2,4795	14,7	10,6
2,48	6,4	6,3
2,4805	-2,4	1,7
2,481	-9,0	-2,3
2,4815	-11,4	-5,2
2,482	-10,5	-7,3
2,4825	-8,8	-9,2
2,483	-8,2	-11,4
2,4835	-7,9	-13,7
2,484	-6,6	-15,6
2,4845	-3,1	-16,7
2,485	2,2	-16,7
2,4855	8,0	-15,7
2,486	13,2	-13,7
2,4865	17,3	-10,8
2,487	19,6	-7,3
2,4875	20,0	-3,6
2,488	18,7	-0,3
2,4885	16,8	2,1
2,489	15,1	3,5
2,4895	13,7	4,0
2,49	12,3	4,3
2,4905	11,3	4,5
2,491	11,7	4,8
2,4915	13,8	4,6
2,492	16,8	4,2
2,4925	20,0	3,6
2,493	23,2	3,4
2,4935	26,6	4,0
2,494	30,2	5,3
2,4945	33,5	6,9
2,495	36,1	8,9
2,4955	37,6	11,0
2,496	36,6	13,0
2,4965	32,4	14,1
2,497	25,7	13,4
2,4975	18,9	11,3
2,498	14,4	8,1
2,4985	12,6	4,6
2,499	12,2	1,1
2,4995	11,5	-2,2
2,5	9,5	-4,9
2,5005	6,7	-6,7
2,501	3,5	-7,8
2,5015	0,8	-8,9
2,502	-1,1	-10,3
2,5025	-1,5	-11,8
2,503	-0,8	-12,6
2,5035	0,0	-12,3
2,504	-1,1	-10,5
2,5045	-5,1	-7,4
2,505	-10,8	-3,1
2,5055	-15,8	1,7
2,506	-18,2	6,4
2,5065	-17,3	10,3
2,507	-13,9	12,5
2,5075	-9,0	12,7
2,508	-3,9	11,3
2,5085	0,5	9,3
2,509	3,9	7,8
2,5095	7,0	7,6
2,51	10,6	8,8
2,5105	14,9	11,1
2,511	19,7	14,1
2,5115	23,9	17,1
2,512	26,4	19,3
2,5125	26,3	20,3
2,513	23,2	20,3
2,5135	17,6	19,5
2,514	10,6	17,3
2,5145	3,7	12,8
2,515	-2,2	5,9
2,5155	-6,4	-2,5
2,516	-8,1	-10,4
2,5165	-6,1	-16,0
2,517	-0,3	-18,5
2,5175	7,5	-18,4
2,518	14,5	-16,8
2,5185	19,4	-14,5
2,519	22,3	-12,4
2,5195	24,5	-10,8
2,52	26,7	-9,4
2,5205	28,5	-8,3
2,521	29,6	-7,0
2,5215	30,1	-5,8
2,522	30,1	-4,5
2,5225	29,6	-3,4
2,523	28,3	-2,1
2,5235	26,0	-0,6
2,524	22,8	1,2
2,5245	20,0	3,1
2,525	18,1	4,7
2,5255	17,6	6,0
2,526	18,3	6,9
2,5265	19,6	7,6
2,527	20,0	7,9
2,5275	17,7	7,8
2,528	11,4	7,1
2,5285	2,0	5,6
2,529	-8,5	3,8
2,5295	-17,6	2,3
2,53	-23,1	1,6
2,5305	-24,2	2,0
2,531	-21,4	3,3
2,5315	-16,3	4,6
2,532	-9,8	5,7
2,5325	-2,4	6,7
2,533	6,1	7,6
2,5335	15,6	8,5
2,534	25,5	9,2
2,5345	34,2	9,4
2,535	40,3	8,8
2,5355	43,6	7,5
2,536	45,1	6,4
2,5365	46,2	5,9
2,537	47,2	6,1
2,5375	47,2	6,3
2,538	45,6	6,2
2,5385	43,1	5,5
2,539	41,0	4,0
2,5395	40,2	1,8
2,54	40,3	-0,5
2,5405	40,2	-2,2
2,541	38,9	-2,6
2,5415	36,1	-1,8
2,542	32,1	0,1
2,5425	27,3	2,2
2,543	22,6	4,1
2,5435	18,8	5,3
2,544	16,1	5,7
2,5445	14,5	5,1
2,545	13,3	3,8
2,5455	12,3	2,3
2,546	11,3	1,4
2,5465	9,6	1,0
2,547	6,8	0,5
2,5475	3,3	-0,3
2,548	0,0	-1,3
2,5485	-2,0	-1,9
2,549	-3,1	-1,8
2,5495	-4,5	-1,6
2,55	-7,0	-1,5
2,5505	-10,2	-1,8
2,551	-12,6	-1,9
2,5515	-13,2	-1,5
2,552	-11,8	-0,3
2,5525	-8,8	1,7
2,553	-5,2	4,3
2,5535	-1,4	7,0
2,554	2,3	9,5
2,5545	6,0	11,1
2,555	9,4	11,6
2,5555	12,8	10,8
2,556	16,4	9,0
2,5565	20,1	6,3
2,557	23,3	3,8
2,5575	25,9	2,5
2,558	28,2	3,0
2,5585	30,7	5,4
2,559	33,7	8,8
2,5595	36,7	11,9
2,56	38,6	13,7
2,5605	38,4	13,8
2,561	35,8	12,4
2,5615	31,6	10,1
2,562	27,2	7,8
2,5625	24,1	6,0
2,563	22,8	5,2
2,5635	22,8	5,2
2,564	22,8	5,7
2,5645	21,7	6,2
2,565	19,5	6,3
2,5655	16,6	6,1
2,566	13,5	5,6
2,5665	10,6	4,6
2,567	7,3	2,7
2,5675	3,1	0,1
2,568	-1,6	-2,8
2,5685	-5,8	-4,9
2,569	-8,2	-6,5
2,5695	-8,5	-7,8
2,57	-7,1	-9,2
2,5705	-4,8	-10,6
2,571	-1,5	-11,7
2,5715	2,9	-11,8
2,572	8,5	-10,7
2,5725	14,3	-8,5
2,573	19,1	-5,5
2,5735	22,2	-2,2
2,574	24,4	0,7
2,5745	26,7	2,5
2,575	29,3	3,0
2,5755	30,9	2,3
2,576	30,6	1,4
2,5765	28,3	0,9
2,577	25,3	1,3
2,5775	23,0	2,3
2,578	21,9	3,7
2,5785	22,1	5,4
2,579	23,3	7,4
2,5795	25,3	9,6
2,58	27,3	11,6
2,5805	29,2	13,2
2,581	30,9	14,5
2,5815	32,3	15,5
2,582	33,4	16,3
2,5825	33,5	16,5
2,583	31,6	16,1
2,5835	27,1	15,0
2,584	20,1	13,2
2,5845	11,9	10,8
2,585	4,3	7,9
2,5855	-1,5	4,9
2,586	-4,6	2,5
2,5865	-5,5	1,3
2,587	-5,4	1,2
2,5875	-5,9	1,2
2,588	-7,6	0,9
2,5885	-9,8	0,2
2,589	-11,7	-0,4
2,5895	-12,7	-0,9
2,59	-12,6	-1,4
2,5905	-11,1	-1,7
2,591	-7,9	-1,1
2,5915	-3,3	0,6
2,592	2,3	3,1
2,5925	7,9	5,7
2,593	12,9	7,7
2,5935	17,0	8,8
2,594	20,0	9,3
2,5945	22,3	9,4
2,595	23,8	9,3
2,5955	24,4	9,5
2,596	23,8	10,3
2,5965	22,4	11,6
2,597	20,6	13,3
2,5975	19,1	14,6
2,598	18,6	15,2
2,5985	19,2	14,8
2,599	20,5	13,0
2,5995	21,4	9,6
2,6	20,5	4,6
2,6005	17,4	-0,8
2,601	12,7	-5,3
2,6015	7,7	-7,5
2,602	3,8	-7,2
2,6025	1,9	-5,1
2,603	1,8	-2,7
2,6035	2,8	-0,9
2,604	4,2	-0,2
2,6045	5,5	0,1
2,605	6,1	0,8
2,6055	6,3	2,2
2,606	7,2	4,4
2,6065	8,9	6,8
2,607	10,7	8,8
2,6075	11,6	10,1
2,608	11,9	11,0
2,6085	13,0	11,8
2,609	15,6	13,1
2,6095	19,7	14,8
2,61	24,2	16,4
2,6105	28,1	17,8
2,611	31,2	19,1
2,6115	33,9	20,9
2,612	35,9	22,9
2,6125	35,4	23,8
2,613	31,1	22,4
2,6135	23,7	19,0
2,614	15,5	14,9
2,6145	8,8	11,4
2,615	4,7	8,5
2,6155	3,3	6,0
2,616	3,7	3,5
2,6165	5,1	0,9
2,617	6,4	-2,2
2,6175	6,5	-5,8
2,618	5,3	-9,7
2,6185	3,7	-12,9
2,619	3,0	-14,4
2,6195	3,9	-14,1
2,62	5,9	-12,2
2,6205	7,7	-9,7
2,621	8,7	-7,3
2,6215	9,3	-5,2
2,622	10,0	-3,3
2,6225	10,7	-1,8
2,623	10,7	-0,7
2,6235	10,1	0,0
2,624	10,2	0,8
2,6245	12,0	2,3
2,625	15,0	4,4
2,6255	18,2	7,2
2,626	21,0	10,8
2,6265	23,2	14,9
2,627	25,0	18,9
2,6275	25,8	21,9
2,628	25,3	23,6
2,6285	23,4	24,0
2,629	20,9	23,3
2,6295	19,0	21,4
2,63	18,6	18,5
2,6305	20,4	14,9
2,631	23,8	11,2
2,6315	27,3	7,6
2,632	29,1	4,1
2,6325	28,3	0,4
2,633	25,4	-3,4
2,6335	21,5	-7,2
2,634	17,8	-10,7
2,6345	15,2	-13,6
2,635	13,9	-15,5
2,6355	14,1	-16,1
2,636	15,1	-14,8
2,6365	15,8	-11,6
2,637	14,9	-7,1
2,6375	12,1	-2,0
2,638	8,1	2,5
2,6385	4,0	5,8
2,639	0,7	7,5
2,6395	-1,3	7,6
2,64	-1,5	6,4
2,6405	-0,3	5,0
2,641	1,8	4,2
2,6415	4,3	4,4
2,642	7,2	5,8
2,6425	10,6	7,6
2,643	14,0	9,2
2,6435	15,8	9,9
2,644	14,5	9,6
2,6445	9,8	8,4
2,645	3,6	7,0
2,6455	-1,9	5,8
2,646	-5,4	5,2
2,6465	-6,6	5,0
2,647	-5,6	5,5
2,6475	-2,8	6,4
2,648	1,5	7,3
2,6485	6,3	7,7
2,649	11,1	7,8
2,6495	15,5	7,7
2,65	19,6	7,5
2,6505	23,1	7,3
2,651	25,3	7,1
2,6515	25,9	7,4
2,652	25,5	8,5
2,6525	25,2	10,2
2,653	26,7	11,9
2,6535	30,8	12,9
2,654	36,1	12,5
2,6545	40,5	10,5
2,655	42,5	7,4
2,6555	41,9	3,7
2,656	38,7	0,3
2,6565	32,4	-2,5
2,657	22,7	-4,2
2,6575	9,6	-4,8
2,658	-5,3	-4,8
2,6585	-19,2	-4,1
2,659	-28,9	-2,9
2,6595	-32,6	-1,2
2,66	-30,3	0,9
2,6605	-23,2	3,5
2,661	-13,2	6,3
2,6615	-1,7	9,1
2,662	9,9	11,8
2,6625	20,7	14,4
2,663	29,8	16,8
2,6635	37,2	18,5
2,664	43,1	19,7
2,6645	48,0	20,0
2,665	51,9	19,6
2,6655	54,1	18,2
2,666	53,5	15,7
2,6665	50,0	12,2
2,667	45,1	8,2
2,6675	41,2	4,7
2,668	39,9	2,3
2,6685	41,2	1,2
2,669	43,0	0,9
2,6695	42,9	0,8
2,67	39,5	0,2
2,6705	32,8	-0,9
2,671	24,2	-1,9
2,6715	15,3	-2,6
2,672	7,8	-3,1
2,6725	3,0	-3,3
2,673	1,1	-3,0
2,6735	0,9	-1,8
2,674	0,7	0,5
2,6745	-0,7	3,3
2,675	-3,4	6,3
2,6755	-6,6	9,3
2,676	-9,1	12,1
2,6765	-9,7	14,2
2,677	-8,5	15,0
2,6775	-6,8	14,1
2,678	-6,1	11,3
2,6785	-6,8	6,9
2,679	-7,5	2,2
2,6795	-6,6	-1,3
2,68	-2,8	-2,3
2,6805	3,7	-0,8
2,681	11,3	2,3
2,6815	18,6	5,9
2,682	24,3	8,9
2,6825	28,1	10,9
2,683	30,1	12,0
2,6835	30,1	12,1
2,684	28,3	11,5
2,6845	26,4	10,5
2,685	26,8	9,6
2,6855	30,0	8,6
2,686	33,5	7,1
2,6865	34,3	5,2
2,687	31,7	3,4
2,6875	26,5	2,3
2,688	20,4	1,8
2,6885	14,8	1,5
2,689	10,5	1,7
2,6895	7,9	2,5
2,69	5,8	3,8
2,6905	2,5	5,3
2,691	-2,7	6,5
2,6915	-8,5	7,5
2,692	-13,4	8,1
2,6925	-16,2	8,4
2,693	-16,6	8,8
2,6935	-14,4	9,7
2,694	-10,0	11,7
2,6945	-4,1	14,5
2,695	2,6	17,4
2,6955	9,8	19,8
2,696	17,2	21,1
2,6965	24,5	21,6
2,697	31,4	21,6
2,6975	37,8	21,7
2,698	43,5	21,8
2,6985	48,6	21,4
2,699	52,7	20,1
2,6995	55,0	17,6
2,7	54,6	14,2
2,7005	51,9	10,3
2,701	48,6	7,4
2,7015	46,3	6,5
2,702	45,6	7,3
2,7025	45,6	8,0
2,703	44,2	6,5
2,7035	39,3	2,2
2,704	30,7	-4,1
2,7045	20,9	-10,3
2,705	12,9	-14,3
2,7055	8,5	-15,9
2,706	7,5	-15,7
2,7065	8,4	-14,6
2,707	9,9	-12,8
2,7075	11,3	-10,3
2,708	12,2	-7,3
2,7085	12,8	-4,2
2,709	13,8	-1,1
2,7095	15,8	1,8
2,71	19,2	4,3
2,7105	23,3	6,3
2,711	26,9	7,8
2,7115	29,3	8,9
2,712	30,1	9,4
2,7125	29,9	9,8
2,713	29,8	10,3
2,7135	30,3	11,4
2,714	31,5	13,0
2,7145	33,1	14,9
2,715	34,9	16,9
2,7155	36,7	18,5
2,716	38,3	19,7
2,7165	39,6	20,6
2,717	40,6	21,3
2,7175	41,6	22,2
2,718	42,6	23,4
2,7185	43,7	24,8
2,719	45,1	26,4
2,7195	47,0	28,3
2,72	48,8	30,3
2,7205	49,3	31,3
2,721	46,9	30,5
2,7215	40,9	27,1
2,722	32,5	21,5
2,7225	23,4	14,8
2,723	15,0	8,2
2,7235	8,1	2,6
2,724	3,3	-1,5
2,7245	1,0	-3,4
2,725	1,2	-2,8
2,7255	3,3	-0,5
2,726	6,3	2,4
2,7265	9,1	4,7
2,727	11,0	6,2
2,7275	11,7	7,2
2,728	11,5	8,4
2,7285	11,0	9,9
2,729	10,8	11,2
2,7295	11,1	11,8
2,73	11,7	11,5
2,7305	12,4	10,6
2,731	13,0	9,8
2,7315	13,9	9,7
2,732	15,5	10,3
2,7325	17,5	11,7
2,733	19,5	13,3
2,7335	21,0	14,8
2,734	21,8	15,7
2,7345	22,0	15,8
2,735	22,1	15,4
2,7355	22,0	14,9
2,736	21,6	15,1
2,7365	20,8	16,3
2,737	19,6	18,8
2,7375	18,1	21,8
2,738	15,9	24,3
2,7385	12,3	25,0
2,739	7,3	24,1
2,7395	1,8	22,7
2,74	-2,8	22,0
2,7405	-5,4	22,8
2,741	-5,7	24,7
2,7415	-3,5	26,7
2,742	0,4	28,0
2,7425	4,6	28,1
2,743	7,6	27,0
2,7435	8,8	25,2
2,744	8,9	23,5
2,7445	8,3	22,0
2,745	7,2	20,4
2,7455	5,9	18,2
2,746	4,3	15,7
2,7465	2,8	13,3
2,747	1,5	11,8
2,7475	1,2	11,4
2,748	2,7	11,8
2,7485	6,5	12,7
2,749	11,9	13,1
2,7495	17,1	12,3
2,75	20,4	10,8
2,7505	22,3	9,6
2,751	23,7	9,7
2,7515	25,4	11,3
2,752	27,4	13,5
2,7525	29,2	15,7
2,753	29,8	17,0
2,7535	28,8	17,4
2,754	26,5	16,8
2,7545	24,2	15,8
2,755	22,8	14,7
2,7555	22,7	14,4
2,756	23,3	15,4
2,7565	24,3	18,4
2,757	24,9	22,7
2,7575	24,2	26,9
2,758	21,7	29,6
2,7585	17,8	30,1
2,759	14,0	29,0
2,7595	11,7	27,4
2,76	11,2	25,9
2,7605	11,3	24,6
2,761	10,6	23,3
2,7615	8,4	22,2
2,762	6,1	22,1
2,7625	5,8	23,7
2,763	8,4	26,7
2,7635	13,5	29,5
2,764	18,8	30,5
2,7645	21,3	28,2
2,765	18,8	22,1
2,7655	11,4	13,0
2,766	1,5	2,8
2,7665	-7,0	-6,3
2,767	-10,9	-11,7
2,7675	-10,1	-12,8
2,768	-6,6	-10,4
2,7685	-2,8	-6,4
2,769	0,2	-2,5
2,7695	2,2	0,5
2,77	3,6	2,2
2,7705	4,9	3,0
2,771	5,9	3,5
2,7715	5,2	4,3
2,772	2,1	5,7
2,7725	-2,6	7,6
2,773	-7,1	9,9
2,7735	-9,6	12,4
2,774	-9,6	14,9
2,7745	-7,5	17,2
2,775	-4,5	19,0
2,7755	-1,6	20,5
2,776	0,4	21,6
2,7765	1,5	22,4
2,777	2,3	22,7
2,7775	4,5	22,7
2,778	9,1	22,9
2,7785	15,4	23,4
2,779	21,7	23,8
2,7795	26,6	24,1
2,78	29,5	24,1
2,7805	29,8	24,1
2,781	27,0	23,7
2,7815	20,8	21,9
2,782	11,8	18,5
2,7825	2,0	13,7
2,783	-5,8	9,1
2,7835	-9,7	6,1
2,784	-9,7	5,7
2,7845	-7,5	7,6
2,785	-4,7	10,6
2,7855	-2,3	13,3
2,786	-0,1	15,2
2,7865	2,1	16,6
2,787	4,3	17,9
2,7875	5,8	18,9
2,788	5,9	19,2
2,7885	4,6	18,5
2,789	2,4	17,2
2,7895	0,4	15,7
2,79	-1,2	14,8
2,7905	-2,1	14,9
2,791	-2,3	16,4
2,7915	-2,2	18,6
2,792	-2,3	20,9
2,7925	-2,5	22,4
2,793	-2,1	22,9
2,7935	-1,2	22,6
2,794	-0,4	22,2
2,7945	0,6	22,3
2,795	2,8	23,2
2,7955	7,0	24,6
2,796	12,6	25,7
2,7965	18,4	25,3
2,797	22,9	23,3
2,7975	25,4	20,2
2,798	25,7	17,3
2,7985	24,2	15,4
2,799	21,9	14,5
2,7995	19,6	14,5
2,8	18,1	15,3
2,8005	17,5	16,9
2,801	17,5	19,0
2,8015	17,5	20,5
2,802	17,7	20,4
2,8025	18,8	18,5
2,803	21,9	15,3
2,8035	27,2	12,1
2,804	33,5	9,3
2,8045	38,9	7,2
2,805	41,7	5,4
2,8055	41,1	4,3
2,806	37,7	4,0
2,8065	32,9	4,4
2,807	28,1	5,2
2,8075	24,1	6,4
2,808	21,2	8,1
2,8085	19,7	10,3
2,809	19,6	13,0
2,8095	20,9	15,9
2,81	23,0	18,6
2,8105	25,1	21,0
2,811	25,9	22,5
2,8115	24,9	22,5
2,812	22,2	20,9
2,8125	18,8	18,0
2,813	15,7	14,9
2,8135	14,0	12,5
2,814	13,8	11,3
2,8145	14,6	10,8
2,815	15,8	10,6
2,8155	16,9	10,8
2,816	17,1	11,5
2,8165	15,1	12,3
2,817	10,2	12,5
2,8175	3,5	11,6
2,818	-3,1	10,0
2,8185	-7,9	8,3
2,819	-10,4	6,9
2,8195	-10,7	5,7
2,82	-9,0	4,7
2,8205	-5,3	4,0
2,821	-0,0	3,9
2,8215	5,7	4,3
2,822	11,1	5,1
2,8225	15,8	6,3
2,823	19,9	7,8
2,8235	22,8	9,7
2,824	23,9	11,7
2,8245	22,7	13,7
2,825	19,2	15,3
2,8255	14,2	15,9
2,826	9,5	15,0
2,8265	6,7	12,3
2,827	6,6	8,6
2,8275	8,8	4,9
2,828	11,9	2,4
2,8285	14,4	1,7
2,829	15,5	2,8
2,8295	15,5	5,3
2,83	15,0	8,6
2,8305	14,8	12,0
2,831	15,1	14,3
2,8315	15,5	14,9
2,832	16,3	14,3
2,8325	17,9	13,5
2,833	20,4	13,2
2,8335	23,1	13,3
2,834	25,1	13,0
2,8345	25,9	12,1
2,835	26,0	11,2
2,8355	26,0	10,6
2,836	25,9	10,2
2,8365	25,6	9,5
2,837	24,7	8,4
2,8375	23,3	7,4
2,838	21,4	7,0
2,8385	18,8	7,5
2,839	15,2	8,6
2,8395	10,7	9,7
2,84	6,1	10,6
2,8405	2,2	11,2
2,841	-0,3	11,8
2,8415	-1,7	12,1
2,842	-2,9	11,6
2,8425	-5,0	9,9
2,843	-8,5	7,3
2,8435	-12,8	4,4
2,844	-15,8	2,7
2,8445	-16,3	2,9
2,845	-14,2	5,1
2,8455	-10,8	8,3
2,846	-7,5	11,6
2,8465	-5,2	14,6
2,847	-3,8	16,7
2,8475	-3,6	17,2
2,848	-3,8	15,9
2,8485	-3,7	13,3
2,849	-2,8	10,2
2,8495	-1,2	7,3
2,85	1,6	5,0
2,8505	6,0	3,8
2,851	11,3	3,7
2,8515	15,2	4,0
2,852	16,1	4,2
2,8525	14,0	3,6
2,853	10,7	2,3
2,8535	8,0	0,7
2,854	7,2	-0,9
2,8545	8,8	-2,0
2,855	12,3	-2,3
2,8555	15,8	-2,1
2,856	16,6	-1,5
2,8565	12,1	-0,7
2,857	2,2	0,4
2,8575	-11,1	1,8
2,858	-24,6	3,1
2,8585	-35,3	4,5
2,859	-41,8	5,6
2,8595	-42,9	6,6
2,86	-39,0	7,9
2,8605	-31,2	9,8
2,861	-21,0	12,3
2,8615	-10,0	15,3
2,862	1,0	18,0
2,8625	11,5	20,0
2,863	20,7	20,7
2,8635	28,2	20,1
2,864	34,0	19,1
2,8645	38,5	18,7
2,865	41,9	19,2
2,8655	44,5	20,6
2,866	46,8	22,4
2,8665	48,8	23,8
2,867	49,6	23,7
2,8675	48,0	21,6
2,868	43,3	18,3
2,8685	35,2	14,2
2,869	24,4	9,8
2,8695	12,5	5,4
2,87	1,4	1,3
2,8705	-7,6	-1,9
2,871	-14,0	-4,0
2,8715	-17,4	-4,8
2,872	-17,9	-4,2
2,8725	-16,1	-2,6
2,873	-13,2	-0,7
2,8735	-10,4	1,1
2,874	-8,3	2,4
2,8745	-6,8	3,2
2,875	-5,6	4,1
2,8755	-4,5	5,8
2,876	-4,0	8,4
2,8765	-4,8	11,3
2,877	-6,9	13,8
2,8775	-8,8	15,6
2,878	-9,0	16,6
2,8785	-5,8	17,1
2,879	0,8	17,3
2,8795	9,3	17,1
2,88	16,7	16,3
2,8805	21,2	15,1
2,881	22,7	13,8
2,8815	22,5	13,2
2,882	21,5	13,3
2,8825	20,0	13,9
2,883	17,8	14,7
2,8835	13,5	14,9
2,884	6,8	14,2
2,8845	-1,1	12,9
2,885	-7,8	12,0
2,8855	-11,3	12,3
2,886	-11,2	13,8
2,8865	-8,5	15,6
2,887	-4,7	16,9
2,8875	-0,9	16,8
2,888	2,2	15,5
2,8885	4,2	13,9
2,889	5,5	13,1
2,8895	6,8	13,4
2,89	8,2	15,0
2,8905	9,9	17,5
2,891	11,5	20,5
2,8915	12,5	23,4
2,892	12,7	25,4
2,8925	12,2	25,9
2,893	11,8	24,5
2,8935	12,6	21,3
2,894	14,7	16,9
2,8945	17,7	11,9
2,895	19,7	7,0
2,8955	19,3	2,6
2,896	16,5	-1,0
2,8965	12,8	-3,4
2,897	10,2	-4,3
2,8975	9,0	-3,7
2,898	8,8	-1,9
2,8985	9,0	-0,0
2,899	9,0	1,4
2,8995	8,5	2,0
2,9	7,4	2,1
2,9005	5,7	1,8
2,901	3,1	1,1
2,9015	-0,9	0,0
2,902	-5,8	-1,2
2,9025	-11,0	-2,0
2,903	-15,8	-1,8
2,9035	-19,8	-0,6
2,904	-22,8	1,6
2,9045	-25,3	4,4
2,905	-27,7	7,2
2,9055	-30,3	9,6
2,906	-32,4	11,6
2,9065	-33,4	13,1
2,907	-32,8	14,3
2,9075	-30,1	15,5
2,908	-24,9	16,7
2,9085	-17,2	18,1
2,909	-7,9	19,5
2,9095	1,4	20,9
2,91	10,3	22,0
2,9105	18,8	22,8
2,911	26,7	23,4
2,9115	32,8	23,5
2,912	36,4	22,7
2,9125	37,8	21,1
2,913	38,0	18,8
2,9135	36,9	15,6
2,914	34,2	11,6
2,9145	29,8	7,7
2,915	24,5	4,8
2,9155	19,1	2,9
2,916	14,4	1,5
2,9165	10,8	0,3
2,917	9,1	-0,4
2,9175	9,2	-0,2
2,918	9,6	0,7
2,9185	9,0	1,6
2,919	7,5	2,2
2,9195	6,4	2,9
2,92	6,8	4,3
2,9205	8,4	6,1
2,921	10,0	7,7
2,9215	10,3	8,1
2,922	8,8	7,0
2,9225	6,3	5,3
2,923	3,8	3,8
2,9235	3,0	3,7
2,924	4,7	5,1
2,9245	9,1	7,7
2,925	15,1	10,6
2,9255	21,2	13,1
2,926	25,3	14,8
2,9265	26,5	15,3
2,927	25,2	14,8
2,9275	22,3	13,6
2,928	19,1	12,5
2,9285	16,4	12,1
2,929	14,8	12,3
2,9295	14,3	12,8
2,93	14,6	13,1
2,9305	14,7	12,8
2,931	14,6	11,8
2,9315	14,3	10,8
2,932	14,0	10,0
2,9325	13,5	9,5
2,933	12,3	9,3
2,9335	10,0	9,3
2,934	7,3	9,4
2,9345	5,3	9,8
2,935	4,7	10,8
2,9355	5,8	12,2
2,936	8,1	13,7
2,9365	11,0	14,7
2,937	14,0	14,9
2,9375	17,0	14,5
2,938	20,0	14,1
2,9385	22,8	14,7
2,939	25,0	16,3
2,9395	26,4	18,6
2,94	26,7	20,5
2,9405	26,2	21,7
2,941	25,2	22,2
2,9415	24,3	21,8
2,942	23,7	20,0
2,9425	23,5	16,9
2,943	23,8	13,7
2,9435	23,7	11,2
2,944	22,2	9,5
2,9445	19,1	7,9
2,945	14,9	5,9
2,9455	10,4	3,3
2,946	6,3	0,3
2,9465	3,5	-2,5
2,947	2,5	-4,0
2,9475	3,8	-3,8
2,948	7,1	-1,8
2,9485	11,8	1,1
2,949	16,9	4,3
2,9495	20,9	7,3
2,95	23,0	9,4
2,9505	22,9	10,7
2,951	20,5	10,9
2,9515	16,5	10,0
2,952	11,7	8,0
2,9525	6,7	5,8
2,953	2,1	4,3
2,9535	-1,8	3,8
2,954	-5,2	4,2
2,9545	-8,3	4,7
2,955	-11,3	5,3
2,9555	-13,7	5,8
2,956	-14,5	6,3
2,9565	-13,7	6,9
2,957	-11,3	8,0
2,9575	-8,0	9,4
2,958	-4,2	10,9
2,9585	0,0	11,9
2,959	4,5	12,2
2,9595	9,4	12,1
2,96	14,8	11,9
2,9605	20,5	12,1
2,961	25,5	12,9
2,9615	29,5	14,4
2,962	32,3	16,4
2,9625	34,5	18,2
2,963	36,4	19,0
2,9635	38,4	18,8
2,964	40,4	17,5
2,9645	41,9	15,5
2,965	41,8	13,2
2,9655	39,6	10,8
2,966	35,5	8,4
2,9665	30,2	5,8
2,967	24,6	2,7
2,9675	19,0	-0,3
2,968	13,8	-2,8
2,9685	9,5	-3,8
2,969	7,1	-2,9
2,9695	7,3	-0,3
2,97	9,9	3,6
2,9705	13,5	7,6
2,971	16,4	10,9
2,9715	18,0	13,5
2,972	18,8	15,8
2,9725	20,2	18,0
2,973	23,0	20,0
2,9735	26,8	21,2
2,974	30,0	21,2
2,9745	31,8	19,8
2,975	32,3	17,8
2,9755	32,6	15,7
2,976	33,3	13,8
2,9765	34,3	12,1
2,977	35,3	10,6
2,9775	35,2	9,4
2,978	33,0	8,8
2,9785	28,0	8,8
2,979	20,6	9,8
2,9795	12,3	11,6
2,98	4,6	14,0
2,9805	-2,4	16,5
2,981	-9,0	17,8
2,9815	-15,6	17,1
2,982	-21,8	14,4
2,9825	-26,3	11,0
2,983	-28,2	8,4
2,9835	-26,6	7,4
2,984	-21,6	7,8
2,9845	-13,7	9,1
2,985	-3,8	10,8
2,9855	6,9	12,5
2,986	16,7	14,2
2,9865	24,1	15,6
2,987	28,5	16,7
2,9875	30,7	17,8
2,988	31,3	19,0
2,9885	29,7	20,1
2,989	24,3	20,3
2,9895	15,3	18,7
2,99	4,5	15,1
2,9905	-5,0	10,5
2,991	-11,1	6,0
2,9915	-13,4	2,4
2,992	-12,3	-0,2
2,9925	-7,9	-1,8
2,993	-1,0	-2,3
2,9935	7,0	-2,0
2,994	13,6	-0,8
2,9945	17,2	1,0
2,995	17,6	3,2
2,9955	16,5	5,4
2,996	15,6	7,4
2,9965	15,4	9,3
2,997	15,9	11,1
2,9975	16,6	12,6
2,998	17,3	13,8
2,9985	17,9	14,3
2,999	17,9	14,4
2,9995	17,3	14,2
3	16,7	13,9
3,0005	16,6	14,0
3,001	17,1	14,8
3,0015	17,6	16,3
3,002	17,3	18,0
3,0025	16,3	19,5
3,003	15,1	20,8
3,0035	14,5	21,7
3,004	16,2	22,8
3,0045	20,8	24,4
3,005	27,2	26,1
3,0055	32,8	27,0
3,006	34,8	26,2
3,0065	32,6	23,9
3,007	28,5	21,3
3,0075	24,7	19,2
3,008	21,9	17,8
3,0085	18,7	16,7
3,009	14,7	15,8
3,0095	10,9	15,2
3,01	9,1	14,8
3,0105	9,9	14,5
3,011	12,9	14,2
3,0115	16,6	13,9
3,012	19,6	13,6
3,0125	21,0	13,2
3,013	20,0	12,7
3,0135	16,6	12,3
3,014	11,6	12,0
3,0145	6,8	12,0
3,015	4,0	12,2
3,0155	4,9	12,3
3,016	9,2	12,2
3,0165	15,2	11,9
3,017	20,8	12,1
3,0175	25,0	12,8
3,018	27,6	14,2
3,0185	28,5	15,7
3,019	27,5	16,8
3,0195	24,4	17,4
3,02	19,3	17,6
3,0205	13,1	17,7
3,021	7,1	18,0
3,0215	2,9	18,6
3,022	0,9	19,2
3,0225	0,8	19,3
3,023	1,9	18,8
3,0235	3,5	17,8
3,024	5,2	17,3
3,0245	7,1	17,7
3,025	9,2	19,4
3,0255	11,5	21,6
3,026	13,9	23,4
3,0265	16,3	23,9
3,027	18,2	23,1
3,0275	19,2	21,5
3,028	19,9	20,1
3,0285	20,5	19,1
3,029	20,2	18,5
3,0295	17,0	18,1
3,03	10,2	18,1
3,0305	0,7	18,4
3,031	-8,8	18,2
3,0315	-16,0	17,0
3,032	-19,6	14,5
3,0325	-19,5	11,6
3,033	-16,7	9,3
3,0335	-12,2	8,3
3,034	-7,3	8,7
3,0345	-2,4	10,4
3,035	3,2	13,2
3,0355	9,7	16,6
3,036	16,6	19,9
3,0365	22,3	21,9
3,037	25,3	22,0
3,0375	25,9	20,5
3,038	25,6	18,8
3,0385	25,8	18,4
3,039	26,6	19,8
3,0395	27,1	22,6
3,04	26,5	25,4
3,0405	24,7	27,3
3,041	22,0	27,7
3,0415	19,3	26,3
3,042	17,1	23,5
3,0425	15,9	20,6
3,043	15,9	18,8
3,0435	16,6	18,0
3,044	17,4	17,8
3,0445	17,9	17,7
3,045	18,3	17,6
3,0455	18,9	17,7
3,046	19,9	18,1
3,0465	21,3	18,6
3,047	23,3	19,0
3,0475	25,7	19,3
3,048	27,8	19,4
3,0485	29,3	19,4
3,049	29,9	19,1
3,0495	29,6	18,6
3,05	27,8	17,6
3,0505	24,3	16,4
3,051	19,6	15,5
3,0515	14,3	15,1
3,052	9,4	15,5
3,0525	5,7	16,6
3,053	3,8	18,5
3,0535	3,9	21,2
3,054	5,8	24,6
3,0545	9,1	28,4
3,055	13,1	32,3
3,0555	16,7	35,8
3,056	19,0	38,3
3,0565	19,7	39,6
3,057	19,6	39,9
3,0575	19,7	40,2
3,058	20,6	40,9
3,0585	22,4	42,1
3,059	24,8	43,5
3,0595	26,9	44,3
3,06	28,1	43,7
3,0605	28,0	41,5
3,061	27,2	37,9
3,0615	26,4	33,5
3,062	25,8	28,9
3,0625	25,0	25,0
3,063	23,6	22,4
3,0635	21,9	20,9
3,064	20,4	19,9
3,0645	19,4	19,0
3,065	18,9	18,3
3,0655	18,2	17,9
3,066	17,0	17,7
3,0665	15,1	17,3
3,067	11,8	16,6
3,0675	6,1	15,4
3,068	-1,6	14,0
3,0685	-9,3	12,7
3,069	-14,8	11,9
3,0695	-16,2	11,7
3,07	-13,3	12,2
3,0705	-7,0	13,4
3,071	0,7	15,0
3,0715	8,5	16,7
3,072	16,2	18,9
3,0725	24,0	22,2
3,073	31,7	26,8
3,0735	38,2	32,1
3,074	42,1	37,1
3,0745	43,1	40,7
3,075	41,3	42,3
3,0755	37,9	41,6
3,076	34,1	39,1
3,0765	30,2	35,4
3,077	25,5	31,3
3,0775	19,2	26,5
3,078	12,4	21,0
3,0785	7,1	15,0
3,079	5,2	9,8
3,0795	6,8	6,6
3,08	10,0	5,6
3,0805	11,9	5,8
3,081	10,6	6,0
3,0815	6,2	5,4
3,082	1,0	4,5
3,0825	-2,6	3,9
3,083	-3,4	4,3
3,0835	-2,1	5,6
3,084	0,2	7,2
3,0845	2,4	8,4
3,085	4,2	9,3
3,0855	5,8	10,1
3,086	7,3	10,8
3,0865	8,6	11,6
3,087	9,9	12,4
3,0875	10,9	13,2
3,088	11,2	14,0
3,0885	9,9	15,1
3,089	6,1	16,2
3,0895	-0,4	17,4
3,09	-8,6	18,8
3,0905	-15,9	20,4
3,091	-20,5	22,5
3,0915	-21,5	24,8
3,092	-19,5	27,2
3,0925	-15,5	29,1
3,093	-10,5	30,7
3,0935	-5,5	31,7
3,094	-1,3	32,1
3,0945	1,4	31,6
3,095	3,0	30,4
3,0955	4,7	29,5
3,096	7,3	29,6
3,0965	10,8	30,5
3,097	14,0	31,5
3,0975	15,8	31,6
3,098	16,5	30,6
3,0985	17,1	28,5
3,099	18,6	25,6
3,0995	20,3	21,8
3,1	20,6	17,0
3,1005	18,0	11,4
3,101	12,4	5,8
3,1015	5,0	1,4
3,102	-1,6	-0,7
3,1025	-5,2	-0,2
3,103	-5,1	2,4
3,1035	-2,4	5,9
3,104	1,0	9,3
3,1045	4,7	11,9
3,105	8,5	13,8
3,1055	12,4	15,1
3,106	15,8	15,8
3,1065	18,4	16,0
3,107	20,5	16,2
3,1075	22,3	16,8
3,108	23,3	18,3
3,1085	23,3	20,2
3,109	22,0	21,7
3,1095	19,1	22,6
3,11	14,8	22,9
3,1105	10,1	22,8
3,111	6,5	22,6
3,1115	5,0	22,3
3,112	5,8	22,6
3,1125	7,9	23,8
3,113	10,9	26,4
3,1135	14,3	29,7
3,114	18,2	32,8
3,1145	22,4	35,0
3,115	26,4	35,7
3,1155	29,6	34,8
3,116	30,9	32,6
3,1165	29,3	29,5
3,117	24,2	25,7
3,1175	16,6	21,5
3,118	8,1	17,3
3,1185	0,6	13,8
3,119	-4,9	11,3
3,1195	-8,7	10,0
3,12	-11,8	9,6
3,1205	-14,6	9,4
3,121	-16,5	9,0
3,1215	-16,4	8,2
3,122	-12,9	7,6
3,1225	-5,3	7,9
3,123	4,8	9,1
3,1235	15,1	10,7
3,124	23,6	12,0
3,1245	29,5	12,5
3,125	33,4	12,3
3,1255	36,3	12,1
3,126	39,0	12,8
3,1265	42,0	14,8
3,127	45,0	18,1
3,1275	47,3	22,1
3,128	48,4	26,2
3,1285	47,1	29,4
3,129	42,3	31,3
3,1295	34,4	31,8
3,13	25,3	31,4
3,1305	17,3	30,5
3,131	11,8	29,2
3,1315	8,3	27,7
3,132	6,3	26,2
3,1325	5,2	24,7
3,133	5,2	22,8
3,1335	6,1	20,2
3,134	7,3	17,2
3,1345	8,3	14,6
3,135	9,4	13,3
3,1355	11,3	13,2
3,136	13,5	13,8
3,1365	15,0	14,1
3,137	14,8	13,8
3,1375	12,4	13,4
3,138	8,7	13,2
3,1385	4,9	12,9
3,139	2,9	12,5
3,1395	4,2	12,4
3,14	8,8	13,0
3,1405	15,3	14,0
3,141	21,7	14,3
3,1415	26,4	13,7
3,142	29,2	12,9
3,1425	30,3	12,8
3,143	30,7	13,8
3,1435	30,9	15,8
3,144	31,5	18,3
3,1445	32,2	20,8
3,145	33,0	22,8
3,1455	33,8	24,1
3,146	34,3	25,1
3,1465	34,0	26,0
3,147	32,3	27,0
3,1475	29,1	28,1
3,148	24,9	28,9
3,1485	20,8	29,3
3,149	17,1	28,7
3,1495	14,2	27,3
3,15	11,9	25,5
3,1505	10,3	23,8
3,151	9,2	22,8
3,1515	7,6	22,6
3,152	4,3	22,8
3,1525	-1,5	23,2
3,153	-9,1	23,1
3,1535	-16,7	22,6
3,154	-21,5	22,2
3,1545	-22,0	22,7
3,155	-18,3	24,5
3,1555	-12,3	27,0
3,156	-6,3	29,6
3,1565	-1,5	31,1
3,157	2,3	31,3
3,1575	6,3	30,8
3,158	11,7	30,5
3,1585	18,3	30,5
3,159	24,1	30,3
3,1595	27,8	29,0
3,16	29,5	27,2
3,1605	30,4	25,7
3,161	31,1	25,4
3,1615	31,4	26,0
3,162	30,6	26,3
3,1625	28,6	25,0
3,163	26,1	21,4
3,1635	24,3	16,7
3,164	24,2	12,3
3,1645	26,1	9,7
3,165	29,1	9,1
3,1655	32,0	10,1
3,166	33,8	12,0
3,1665	34,1	14,2
3,167	33,1	16,3
3,1675	30,8	17,6
3,168	26,6	18,1
3,1685	20,1	17,9
3,169	12,2	17,6
3,1695	4,7	17,4
3,17	-0,6	17,7
3,1705	-2,3	18,3
3,171	-0,2	19,3
3,1715	4,7	20,3
3,172	10,7	20,9
3,1725	16,8	21,2
3,173	22,9	21,4
3,1735	29,0	22,2
3,174	34,5	23,6
3,1745	38,8	25,4
3,175	41,5	26,6
3,1755	42,4	26,6
3,176	41,4	24,8
3,1765	38,2	21,4
3,177	33,5	17,5
3,1775	28,1	14,6
3,178	23,3	13,5
3,1785	19,8	14,3
3,179	18,3	15,9
3,1795	19,2	17,4
3,18	21,7	18,0
3,1805	23,8	17,6
3,181	24,4	16,3
3,1815	23,5	14,5
3,182	21,9	12,8
3,1825	20,3	11,2
3,183	19,4	10,2
3,1835	19,7	10,1
3,184	21,0	11,1
3,1845	22,9	13,1
3,185	24,3	16,3
3,1855	24,2	20,5
3,186	22,3	24,9
3,1865	19,0	28,6
3,187	15,2	30,7
3,1875	12,5	31,1
3,188	11,9	30,1
3,1885	12,8	28,0
3,189	13,9	25,3
3,1895	14,8	23,0
3,19	16,1	21,9
3,1905	18,9	22,1
3,191	22,9	22,9
3,1915	26,5	23,0
3,192	27,9	21,9
3,1925	26,9	19,4
3,193	24,3	16,3
3,1935	21,1	13,2
3,194	18,1	10,7
3,1945	15,4	9,2
3,195	13,1	8,9
3,1955	11,3	9,2
3,196	10,0	9,5
3,1965	9,9	9,8
3,197	11,9	10,1
3,1975	16,3	10,9
3,198	22,1	12,3
3,1985	27,3	13,8
3,199	30,4	14,8
3,1995	30,9	15,2
3,2	29,6	15,3
3,2005	27,0	15,3
3,201	23,2	15,6
3,2015	18,6	16,3
3,202	13,7	17,5
3,2025	9,4	18,8
3,203	5,9	19,8
3,2035	3,5	19,8
3,204	2,3	18,8
3,2045	2,6	17,2
3,205	4,8	15,7
3,2055	8,4	15,2
3,206	12,2	15,9
3,2065	15,1	18,0
3,207	16,6	21,3
3,2075	17,2	25,1
3,208	17,7	28,6
3,2085	18,6	30,8
3,209	20,6	32,0
3,2095	23,2	32,4
3,21	25,1	31,8
3,2105	24,6	29,6
3,211	21,4	25,8
3,2115	17,1	21,0
3,212	13,7	15,8
3,2125	11,5	10,9
3,213	10,0	6,3
3,2135	8,2	2,1
3,214	6,1	-1,0
3,2145	3,9	-2,6
3,215	1,6	-3,0
3,2155	-0,6	-2,7
3,216	-2,0	-1,9
3,2165	-1,8	-0,5
3,217	0,3	1,3
3,2175	3,8	3,3
3,218	8,9	5,7
3,2185	16,2	8,5
3,219	24,9	11,8
3,2195	33,0	14,9
3,22	38,1	17,1
3,2205	39,1	18,3
3,221	37,0	18,7
3,2215	33,8	18,8
3,222	31,1	19,3
3,2225	29,7	20,2
3,223	29,2	21,4
3,2235	28,8	22,4
3,224	27,8	22,8
3,2245	26,7	22,7
3,225	25,8	22,4
3,2255	25,1	22,5
3,226	24,0	23,3
3,2265	23,3	24,7
3,227	23,2	26,5
3,2275	23,5	27,9
3,228	23,2	28,1
3,2285	21,2	26,6
3,229	17,4	23,4
3,2295	11,9	19,6
3,23	5,5	16,1
3,2305	-0,3	13,9
3,231	-3,9	13,1
3,2315	-4,1	13,3
3,232	-0,2	13,7
3,2325	8,1	13,4
3,233	19,2	11,9
3,2335	29,9	8,9
3,234	36,2	4,4
3,2345	36,2	-0,7
3,235	31,3	-5,0
3,2355	24,9	-7,6
3,236	19,8	-7,9
3,2365	16,9	-6,6
3,237	16,3	-4,3
3,2375	17,2	-1,6
3,238	18,7	0,7
3,2385	19,8	2,6
3,239	20,5	4,3
3,2395	20,7	6,0
3,24	20,9	7,8
3,2405	21,0	9,0
3,241	21,0	9,7
3,2415	21,1	10,0
3,242	21,2	10,4
3,2425	20,8	11,3
3,243	19,3	12,5
3,2435	16,7	13,6
3,244	13,4	13,9
3,2445	10,6	13,4
3,245	9,2	12,7
3,2455	9,5	12,6
3,246	11,7	13,7
3,2465	15,5	16,2
3,247	20,3	19,2
3,2475	25,0	21,5
3,248	28,0	22,0
3,2485	28,6	20,2
3,249	27,3	16,5
3,2495	25,6	12,1
3,25	25,1	8,5
3,2505	26,2	6,5
3,251	28,5	6,4
3,2515	31,1	7,7
3,252	32,9	9,6
3,2525	34,1	11,5
3,253	35,2	13,3
3,2535	36,5	14,9
3,254	38,0	15,9
3,2545	38,8	15,9
3,255	38,6	14,5
3,2555	37,9	12,7
3,256	37,3	11,5
3,2565	36,7	11,6
3,257	35,0	12,8
3,2575	31,8	14,9
3,258	27,5	17,4
3,2585	22,8	20,1
3,259	18,4	22,7
3,2595	14,7	24,7
3,26	11,6	26,0
3,2605	7,7	26,4
3,261	1,4	25,9
3,2615	-7,1	24,8
3,262	-16,1	23,6
3,2625	-22,7	23,0
3,263	-25,2	22,8
3,2635	-23,2	22,9
3,264	-17,7	22,8
3,2645	-10,2	22,3
3,265	-1,7	21,5
3,2655	7,0	20,6
3,266	15,5	19,7
3,2665	23,3	18,4
3,267	29,4	16,5
3,2675	33,8	14,2
3,268	36,7	12,3
3,2685	37,5	11,6
3,269	34,9	12,3
3,2695	28,0	13,9
3,27	18,5	15,5
3,2705	9,5	16,6
3,271	3,8	16,6
3,2715	2,6	15,3
3,272	5,8	13,3
3,2725	12,2	11,2
3,273	19,3	9,8
3,2735	25,6	9,5
3,274	29,9	10,0
3,2745	32,7	10,8
3,275	34,8	11,8
3,2755	37,1	13,5
3,276	40,0	15,9
3,2765	43,2	18,7
3,277	45,3	20,9
3,2775	44,7	21,8
3,278	40,8	21,1
3,2785	34,6	19,1
3,279	27,2	16,7
3,2795	19,2	14,0
3,28	11,5	11,1
3,2805	5,0	8,5
3,281	0,6	6,8
3,2815	-1,8	6,5
3,282	-2,7	7,5
3,2825	-2,0	9,3
3,283	0,1	11,1
3,2835	2,6	12,1
3,284	3,5	12,2
3,2845	2,4	11,6
3,285	0,3	10,9
3,2855	-0,7	10,6
3,286	0,7	11,3
3,2865	4,6	13,3
3,287	10,8	16,5
3,2875	18,5	20,4
3,288	25,9	24,1
3,2885	31,7	26,7
3,289	35,4	27,9
3,2895	37,4	28,1
3,29	37,8	27,8
3,2905	36,3	27,3
3,291	32,6	26,5
3,2915	27,7	25,0
3,292	23,6	23,3
3,2925	21,6	21,9
3,293	21,0	21,9
3,2935	20,6	23,3
3,294	19,5	25,1
3,2945	18,0	26,4
3,295	16,7	26,6
3,2955	16,1	26,0
3,296	16,7	25,7
3,2965	18,4	25,8
3,297	20,7	26,1
3,2975	23,4	26,1
3,298	27,3	25,8
3,2985	32,6	25,4
3,299	39,0	25,1
3,2995	45,1	24,9
3,3	49,4	24,4
3,3005	51,1	23,4
3,301	49,9	21,5
3,3015	46,1	18,0
3,302	40,6	12,8
3,3025	34,8	6,5
3,303	30,1	0,8
3,3035	27,8	-2,5
3,304	28,0	-2,6
3,3045	29,6	0,1
3,305	30,9	3,9
3,3055	30,7	7,4
3,306	28,9	9,3
3,3065	26,3	9,6
3,307	23,9	9,3
3,3075	22,9	9,4
3,308	23,5	10,2
3,3085	25,2	11,5
3,309	27,3	12,9
3,3095	28,9	14,2
3,31	29,9	15,3
3,3105	30,5	16,5
3,311	30,7	17,8
3,3115	30,4	19,3
3,312	29,7	20,7
3,3125	28,8	22,2
3,313	28,2	24,0
3,3135	27,4	25,9
3,314	26,0	27,6
3,3145	23,3	28,5
3,315	19,6	28,5
3,3155	16,0	27,8
3,316	13,4	26,7
3,3165	12,2	25,2
3,317	12,2	23,3
3,3175	12,6	20,8
3,318	12,8	17,9
3,3185	12,4	15,1
3,319	11,9	12,9
3,3195	12,7	11,8
3,32	15,9	12,1
3,3205	21,9	13,9
3,321	29,8	16,7
3,3215	37,6	19,3
3,322	43,1	20,3
3,3225	44,3	18,9
3,323	40,5	15,6
3,3235	32,5	11,4
3,324	22,7	8,0
3,3245	14,9	6,2
3,325	11,4	6,1
3,3255	12,1	7,4
3,326	14,5	9,3
3,3265	16,2	11,2
3,327	16,6	12,5
3,3275	16,1	13,0
3,328	15,4	12,6
3,3285	15,1	11,7
3,329	15,8	10,7
3,3295	18,3	10,4
3,33	22,2	11,3
3,3305	26,7	13,6
3,331	31,1	16,8
3,3315	34,6	19,9
3,332	37,4	22,2
3,3325	39,4	23,3
3,333	40,7	23,6
3,3335	41,2	23,2
3,334	40,3	22,2
3,3345	38,2	20,8
3,335	35,0	19,2
3,3355	31,7	17,8
3,336	29,0	17,0
3,3365	26,9	16,9
3,337	24,6	17,3
3,3375	21,0	17,6
3,338	16,1	17,3
3,3385	11,7	16,5
3,339	9,7	16,0
3,3395	10,7	16,5
3,34	13,5	18,2
3,3405	16,3	20,3
3,341	17,5	21,8
3,3415	16,5	22,3
3,342	14,0	21,7
3,3425	11,2	21,1
3,343	8,8	20,9
3,3435	7,4	20,6
3,344	7,2	19,6
3,3445	8,1	18,2
3,345	10,2	16,8
3,3455	12,8	15,8
3,346	15,1	15,3
3,3465	16,5	15,1
3,347	18,0	15,6
3,3475	21,1	16,9
3,348	25,5	18,8
3,3485	28,8	20,4
3,349	29,0	20,8
3,3495	25,9	19,7
3,35	21,6	17,4
3,3505	17,8	15,1
3,351	15,4	13,3
3,3515	14,2	12,4
3,352	13,7	11,9
3,3525	13,2	11,5
3,353	12,9	10,9
3,3535	13,3	9,9
3,354	14,4	8,6
3,3545	16,3	7,1
3,355	18,5	5,9
3,3555	21,2	5,4
3,356	24,0	5,8
3,3565	26,2	6,8
3,357	27,2	7,7
3,3575	26,7	8,3
3,358	25,1	8,7
3,3585	22,7	9,0
3,359	20,2	8,9
3,3595	18,2	8,2
3,36	17,5	7,0
3,3605	18,0	5,8
3,361	18,4	4,5
3,3615	17,6	3,2
3,362	15,9	1,9
3,3625	14,8	1,3
3,363	15,3	1,6
3,3635	16,7	2,7
3,364	17,7	3,8
3,3645	17,6	4,7
3,365	17,2	5,3
3,3655	16,8	5,7
3,366	16,9	6,0
3,3665	17,4	6,3
3,367	18,5	6,6
3,3675	19,9	7,0
3,368	20,9	7,4
3,3685	20,4	7,8
3,369	17,3	8,4
3,3695	11,1	9,6
3,37	3,0	11,5
3,3705	-4,8	13,9
3,371	-10,2	16,2
3,3715	-12,7	17,7
3,372	-12,0	18,6
3,3725	-8,8	19,2
3,373	-4,3	20,1
3,3735	0,0	21,6
3,374	3,8	23,5
3,3745	7,2	25,3
3,375	10,0	26,0
3,3755	11,9	24,7
3,376	13,2	21,3
3,3765	14,6	16,6
3,377	16,4	11,4
3,3775	18,2	6,6
3,378	19,1	2,6
3,3785	18,6	0,0
3,379	17,0	-1,0
3,3795	14,8	-0,6
3,38	13,3	0,3
3,3805	13,4	0,7
3,381	15,1	0,1
3,3815	16,5	-1,1
3,382	15,8	-2,1
3,3825	12,5	-2,4
3,383	7,2	-2,0
3,3835	1,3	-1,5
3,384	-3,8	-1,2
3,3845	-6,8	-1,2
3,385	-7,4	-1,2
3,3855	-6,2	-0,8
3,386	-4,0	0,4
3,3865	-1,5	2,5
3,387	0,8	5,0
3,3875	3,0	7,7
3,388	4,8	10,2
3,3885	6,6	12,5
3,389	9,4	14,6
3,3895	13,3	16,6
3,39	17,4	18,2
3,3905	19,6	19,1
3,391	18,5	19,3
3,3915	14,8	19,0
3,392	10,4	18,8
3,3925	6,9	19,4
3,393	5,1	20,9
3,3935	4,5	22,9
3,394	4,7	24,3
3,3945	5,8	24,4
3,395	8,8	22,8
3,3955	14,2	20,1
3,396	22,6	17,2
3,3965	33,7	14,8
3,397	45,7	12,8
3,3975	56,1	11,6
3,398	62,3	11,1
3,3985	63,0	11,3
3,399	58,9	11,6
3,3995	52,3	11,7
3,4	45,8	11,5
3,4005	41,4	11,3
3,401	39,1	11,5
3,4015	38,2	12,0
3,402	37,6	12,1
3,4025	36,8	11,7
3,403	35,8	11,2
3,4035	35,2	10,9
3,404	35,3	11,0
3,4045	36,5	11,9
3,405	39,1	13,9
3,4055	42,3	17,0
3,406	45,3	20,5
3,4065	47,1	23,3
3,407	47,3	24,9
3,4075	45,8	25,3
3,408	42,5	24,8
3,4085	38,1	23,3
3,409	33,9	21,1
3,4095	31,2	18,8
3,41	30,3	16,6
3,4105	30,3	14,7
3,411	29,7	13,0
3,4115	27,8	11,3
3,412	24,3	9,3
3,4125	19,8	7,3
3,413	15,4	5,5
3,4135	12,1	4,3
3,414	10,0	3,4
3,4145	8,4	2,2
3,415	6,8	0,5
3,4155	5,5	-1,5
3,416	5,0	-3,1
3,4165	6,0	-4,1
3,417	8,6	-4,1
3,4175	12,2	-3,2
3,418	15,9	-1,6
3,4185	18,7	0,2
3,419	19,4	1,8
3,4195	17,0	2,6
3,42	12,0	2,9
3,4205	5,4	3,1
3,421	-1,1	3,8
3,4215	-6,1	5,5
3,422	-8,8	8,0
3,4225	-9,0	10,9
3,423	-7,2	13,6
3,4235	-4,1	15,6
3,424	-0,2	16,8
3,4245	4,3	17,5
3,425	9,2	18,4
3,4255	14,4	19,8
3,426	20,0	21,5
3,4265	25,7	23,2
3,427	31,0	24,4
3,4275	35,3	25,2
3,428	38,7	25,5
3,4285	41,0	25,5
3,429	42,3	25,0
3,4295	42,3	23,4
3,43	41,0	20,3
3,4305	38,9	15,6
3,431	36,8	10,8
3,4315	35,9	7,3
3,432	36,3	5,7
3,4325	37,1	5,4
3,433	35,8	5,5
3,4335	31,2	5,3
3,434	23,8	4,8
3,4345	15,9	4,4
3,435	9,2	4,2
3,4355	4,0	4,0
3,436	-0,3	3,7
3,4365	-4,5	2,7
3,437	-8,8	1,4
3,4375	-13,0	-0,1
3,438	-16,2	-1,5
3,4385	-17,6	-2,3
3,439	-16,0	-2,2
3,4395	-11,4	-0,9
3,44	-4,4	1,1
3,4405	3,7	3,6
3,441	12,0	6,0
3,4415	20,4	8,3
3,442	28,5	10,5
3,4425	36,1	12,6
3,443	43,2	14,5
3,4435	49,8	15,9
3,444	55,6	16,5
3,4445	60,1	16,4
3,445	62,1	15,7
3,4455	61,2	14,9
3,446	57,9	14,4
3,4465	53,0	14,4
3,447	47,3	15,0
3,4475	41,5	15,7
3,448	36,4	15,9
3,4485	33,0	15,3
3,449	31,2	13,5
3,4495	29,9	11,1
3,45	28,1	8,7
3,4505	25,7	7,0
3,451	23,3	6,7
3,4515	21,7	7,3
3,452	20,8	8,5
3,4525	20,3	9,4
3,453	19,1	9,3
3,4535	16,0	8,1
3,454	10,7	5,8
3,4545	4,0	3,1
3,455	-2,0	0,8
3,4555	-5,5	0,0
3,456	-5,6	0,9
3,4565	-2,7	3,2
3,457	2,0	6,5
3,4575	6,8	10,0
3,458	11,1	12,8
3,4585	15,0	14,4
3,459	19,2	14,7
3,4595	23,8	14,3
3,46	28,3	13,8
3,4605	32,4	13,7
3,461	35,9	14,0
3,4615	38,6	14,9
3,462	40,5	16,1
3,4625	41,3	17,2
3,463	40,8	17,8
3,4635	39,1	18,0
3,464	36,8	17,6
3,4645	35,3	16,1
3,465	35,3	13,6
3,4655	36,9	10,8
3,466	38,8	8,6
3,4665	40,0	7,6
3,467	40,0	7,6
3,4675	38,6	8,1
3,468	36,0	8,8
3,4685	32,5	9,5
3,469	28,6	9,8
3,4695	24,3	9,3
3,47	20,1	7,9
3,4705	17,8	6,0
3,471	19,0	4,5
3,4715	23,3	4,1
3,472	28,1	4,8
3,4725	30,7	6,1
3,473	30,3	7,6
3,4735	27,6	9,2
3,474	24,4	10,8
3,4745	21,8	12,3
3,475	20,0	13,3
3,4755	18,8	13,2
3,476	17,8	11,8
3,4765	17,0	9,9
3,477	17,3	8,4
3,4775	19,3	8,2
3,478	22,9	9,6
3,4785	26,5	11,7
3,479	28,6	13,2
3,4795	27,9	13,5
3,48	24,3	12,5
3,4805	18,6	10,5
3,481	12,1	7,7
3,4815	6,4	4,4
3,482	2,0	1,3
3,4825	-0,8	-0,9
3,483	-1,9	-2,1
3,4835	-1,1	-2,3
3,484	1,7	-1,3
3,4845	5,8	0,7
3,485	10,3	3,2
3,4855	14,2	5,4
3,486	16,7	7,0
3,4865	17,3	8,1
3,487	16,1	9,0
3,4875	14,2	10,1
3,488	12,3	11,0
3,4885	10,3	11,2
3,489	7,5	10,4
3,4895	4,6	8,8
3,49	3,1	6,9
3,4905	4,6	5,0
3,491	9,5	3,6
3,4915	16,3	2,8
3,492	22,5	2,3
3,4925	26,0	2,2
3,493	26,9	2,2
3,4935	26,0	2,5
3,494	24,7	3,0
3,4945	24,1	3,7
3,495	24,9	4,4
3,4955	27,1	4,6
3,496	29,9	3,9
3,4965	33,0	2,7
3,497	36,1	1,8
3,4975	38,1	1,8
3,498	37,9	2,5
3,4985	35,5	3,8
3,499	32,1	4,9
3,4995	28,9	5,3
3,5	26,6	4,5
3,5005	25,1	2,5
3,501	24,7	-0,2
3,5015	25,5	-2,8
3,502	27,6	-4,5
3,5025	30,5	-5,1
3,503	32,8	-4,6
3,5035	34,1	-3,6
3,504	34,1	-2,6
3,5045	33,2	-1,9
3,505	31,4	-1,9
3,5055	28,8	-2,5
3,506	25,6	-3,6
3,5065	22,3	-4,5
3,507	19,6	-4,8
3,5075	17,1	-4,5
3,508	14,8	-4,1
3,5085	12,6	-4,1
3,509	11,0	-4,4
3,5095	10,4	-4,8
3,51	11,0	-4,8
3,5105	12,7	-4,2
3,511	14,8	-2,8
3,5115	16,9	-1,0
3,512	18,7	0,9
3,5125	20,5	2,7
3,513	21,7	4,4
3,5135	20,2	6,3
3,514	14,3	7,8
3,5145	4,6	8,8
3,515	-6,1	8,8
3,5155	-14,8	7,8
3,516	-20,4	5,8
3,5165	-22,8	3,3
3,517	-22,2	1,1
3,5175	-18,9	-0,5
3,518	-13,7	-1,6
3,5185	-7,3	-2,2
3,519	-0,5	-2,2
3,5195	6,4	-1,8
3,52	13,1	-0,9
3,5205	19,1	0,1
3,521	24,2	1,2
3,5215	28,2	2,5
3,522	31,1	3,9
3,5225	32,8	5,5
3,523	33,3	7,6
3,5235	33,1	10,2
3,524	32,8	12,9
3,5245	32,9	15,4
3,525	34,4	17,1
3,5255	37,2	17,5
3,526	40,4	16,1
3,5265	42,3	13,0
3,527	41,5	9,0
3,5275	38,1	5,6
3,528	33,2	3,5
3,5285	28,4	2,8
3,529	25,0	2,9
3,5295	23,1	3,3
3,53	22,3	3,5
3,5305	22,1	3,3
3,531	22,2	2,9
3,5315	22,3	2,7
3,532	22,2	2,6
3,5325	21,8	2,4
3,533	21,3	1,7
3,5335	21,3	0,8
3,534	21,9	0,3
3,5345	22,9	0,6
3,535	23,7	1,7
3,5355	23,2	3,5
3,536	21,4	5,6
3,5365	18,4	7,1
3,537	14,4	7,8
3,5375	9,7	8,3
3,538	4,6	9,5
3,5385	0,3	11,5
3,539	-2,4	13,6
3,5395	-2,8	15,3
3,54	-0,9	16,5
3,5405	2,5	17,4
3,541	6,8	17,9
3,5415	11,5	18,2
3,542	15,9	18,2
3,5425	19,5	17,4
3,543	22,1	15,6
3,5435	23,4	13,2
3,544	23,8	11,2
3,5445	23,4	10,2
3,545	21,8	10,2
3,5455	18,3	10,0
3,546	13,5	8,9
3,5465	8,5	7,1
3,547	4,8	4,9
3,5475	2,9	3,0
3,548	2,3	1,2
3,5485	2,3	-0,4
3,549	2,5	-1,5
3,5495	3,0	-2,0
3,55	3,8	-1,7
3,5505	5,1	-0,9
3,551	6,3	0,2
3,5515	7,1	1,8
3,552	7,2	4,3
3,5525	6,8	7,4
3,553	6,0	10,7
3,5535	4,3	13,0
3,554	1,1	13,6
3,5545	-4,2	12,8
3,555	-10,5	11,6
3,5555	-16,1	10,6
3,556	-19,9	10,0
3,5565	-22,0	9,6
3,557	-22,2	9,7
3,5575	-20,5	10,6
3,558	-17,3	12,1
3,5585	-13,1	13,6
3,559	-8,5	15,0
3,5595	-3,4	16,0
3,56	2,1	16,6
3,5605	7,8	16,7
3,561	13,3	16,1
3,5615	18,6	15,3
3,562	23,9	14,4
3,5625	28,6	13,3
3,563	32,3	11,8
3,5635	35,0	9,7
3,564	36,8	7,7
3,5645	37,6	6,4
3,565	37,8	5,9
3,5655	38,7	5,2
3,566	41,4	3,4
3,5665	45,1	0,2
3,567	46,9	-3,7
3,5675	44,9	-7,4
3,568	39,2	-9,8
3,5685	32,2	-10,3
3,569	26,3	-8,6
3,5695	22,8	-5,4
3,57	21,6	-1,3
3,5705	22,2	3,3
3,571	23,7	7,8
3,5715	24,9	11,6
3,572	25,1	13,8
3,5725	23,8	13,9
3,573	21,5	12,2
3,5735	18,8	9,7
3,574	16,1	7,4
3,5745	13,4	6,4
3,575	11,3	7,1
3,5755	10,3	9,2
3,576	10,3	11,9
3,5765	11,3	14,3
3,577	13,2	15,6
3,5775	16,1	15,6
3,578	19,5	14,3
3,5785	22,6	12,1
3,579	24,6	9,7
3,5795	25,2	7,6
3,58	23,8	6,3
3,5805	21,4	6,1
3,581	19,4	6,6
3,5815	19,5	7,8
3,582	21,2	9,5
3,5825	22,6	11,5
3,583	22,3	13,6
3,5835	20,1	15,4
3,584	17,6	16,8
3,5845	15,7	17,0
3,585	14,6	15,5
3,5855	13,7	11,9
3,586	12,6	7,1
3,5865	11,7	2,6
3,587	11,7	-0,2
3,5875	12,5	-0,9
3,588	13,7	-0,1
3,5885	14,8	1,3
3,589	15,8	3,2
3,5895	16,6	5,1
3,59	16,2	6,4
3,5905	14,4	6,8
3,591	11,9	6,2
3,5915	10,1	5,1
3,592	9,8	4,0
3,5925	10,9	3,4
3,593	12,6	3,5
3,5935	13,2	4,2
3,594	11,5	5,3
3,5945	8,1	6,3
3,595	4,3	7,2
3,5955	1,3	7,6
3,596	-0,3	7,7
3,5965	-0,2	7,7
3,597	1,5	7,7
3,5975	4,8	7,5
3,598	9,0	6,9
3,5985	13,7	6,3
3,599	18,8	6,1
3,5995	24,6	6,7
3,6	30,9	7,8
3,6005	37,0	8,8
3,601	41,5	8,7
3,6015	43,2	7,3
3,602	42,0	5,4
3,6025	38,9	3,6
3,603	34,7	2,5
3,6035	30,2	2,1
3,604	25,9	1,8
3,6045	22,4	1,5
3,605	19,8	1,2
3,6055	18,0	1,0
3,606	16,4	0,8
3,6065	14,5	0,3
3,607	12,4	-0,0
3,6075	10,4	0,3
3,608	9,0	1,8
3,6085	8,1	4,3
3,609	7,3	7,1
3,6095	6,5	9,4
3,61	5,6	10,8
3,6105	4,8	11,2
3,611	4,5	10,6
3,6115	4,9	9,0
3,612	6,6	6,5
3,6125	10,3	3,9
3,613	16,8	2,5
3,6135	25,4	2,8
3,614	34,1	4,7
3,6145	40,7	7,3
3,615	44,4	9,6
3,6155	45,7	10,9
3,616	46,0	11,3
3,6165	46,7	11,1
3,617	48,1	11,1
3,6175	50,0	11,2
3,618	51,5	10,9
3,6185	51,3	9,8
3,619	48,9	8,2
3,6195	44,5	6,4
3,62	39,3	4,7
3,6205	34,3	2,8
3,621	30,3	1,0
3,6215	28,0	-0,1
3,622	27,4	-0,1
3,6225	27,5	0,9
3,623	27,0	2,3
3,6235	24,6	3,1
3,624	19,7	2,5
3,6245	12,1	-0,0
3,625	2,6	-3,9
3,6255	-7,1	-7,8
3,626	-14,8	-10,3
3,6265	-19,3	-11,1
3,627	-20,5	-10,5
3,6275	-19,2	-9,5
3,628	-15,7	-8,4
3,6285	-10,4	-7,5
3,629	-4,0	-6,4
3,6295	2,5	-5,1
3,63	7,8	-3,1
3,6305	10,8	-0,8
3,631	11,2	1,3
3,6315	9,7	3,1
3,632	6,9	4,3
3,6325	3,4	4,9
3,633	-0,2	5,0
3,6335	-3,4	4,9
3,634	-5,9	5,3
3,6345	-7,2	6,5
3,635	-6,8	8,7
3,6355	-5,0	11,6
3,636	-2,3	14,9
3,6365	0,4	18,1
3,637	3,3	20,6
3,6375	6,2	22,2
3,638	9,2	22,6
3,6385	12,2	21,9
3,639	15,2	20,4
3,6395	18,5	18,8
3,64	22,5	17,9
3,6405	27,1	17,9
3,641	31,3	18,2
3,6415	33,9	17,6
3,642	33,8	14,9
3,6425	30,2	10,2
3,643	23,5	3,9
3,6435	15,3	-2,3
3,644	7,4	-6,9
3,6445	0,6	-9,4
3,645	-5,0	-10,4
3,6455	-8,4	-10,6
3,646	-8,2	-10,3
3,6465	-4,3	-9,6
3,647	0,5	-8,8
3,6475	2,7	-8,1
3,648	1,3	-7,2
3,6485	-1,6	-5,8
3,649	-3,0	-3,8
3,6495	-1,5	-1,6
3,65	2,6	0,5
3,6505	8,1	2,4
3,651	13,9	4,1
3,6515	19,0	5,7
3,652	22,5	6,7
3,6525	24,2	6,7
3,653	24,0	5,8
3,6535	22,1	4,3
3,654	18,9	2,7
3,6545	15,0	0,9
3,655	11,0	-1,4
3,6555	8,0	-4,1
3,656	6,7	-6,5
3,6565	6,8	-7,6
3,657	7,3	-7,1
3,6575	7,8	-5,2
3,658	9,5	-2,7
3,6585	12,7	-0,4
3,659	16,1	0,9
3,6595	18,0	1,2
3,66	17,6	0,8
3,6605	15,6	0,1
3,661	13,4	-0,2
3,6615	12,3	0,1
3,662	12,8	0,9
3,6625	14,7	1,9
3,663	17,0	3,2
3,6635	18,3	4,4
3,664	17,3	5,7
3,6645	13,8	6,8
3,665	8,6	7,6
3,6655	3,4	8,1
3,666	-0,8	8,1
3,6665	-3,2	7,7
3,667	-3,5	7,0
3,6675	-1,9	6,4
3,668	1,2	6,3
3,6685	5,2	6,4
3,669	9,5	6,4
3,6695	13,8	6,0
3,67	17,4	5,3
3,6705	19,8	5,2
3,671	20,0	5,6
3,6715	17,1	6,1
3,672	11,7	6,2
3,6725	5,0	6,1
3,673	-1,5	6,2
3,6735	-6,3	7,3
3,674	-8,5	9,2
3,6745	-7,6	11,1
3,675	-3,7	12,4
3,6755	2,3	12,8
3,676	8,9	12,4
3,6765	14,3	11,2
3,677	17,8	9,4
3,6775	19,6	7,8
3,678	20,1	6,5
3,6785	19,8	5,9
3,679	18,5	5,8
3,6795	16,4	5,9
3,68	14,2	6,0
