Interval=	0,0005 s
ExcelDateTime=	4,5909531912727325e+004	9/09/2025 12:45:57,25964
TimeFormat=	StartOfBlock
DateFormat=	
ChannelTitle=	Biceps	Triceps
Range=	1000,0 µV	1000,0 µV
0	-0,2	-0,2
0,0005	-1,7	-1,9
0,001	-6,1	-7,1
0,0015	-12,5	-15,5
0,002	-18,0	-24,8
0,0025	-18,8	-32,1
0,003	-14,0	-36,3
0,0035	-5,4	-38,0
0,004	4,3	-38,1
0,0045	12,5	-37,3
0,005	17,8	-36,5
0,0055	20,2	-36,1
0,006	20,6	-36,0
0,0065	19,7	-36,1
0,007	17,6	-36,3
0,0075	14,0	-36,7
0,008	8,8	-37,5
0,0085	2,2	-39,0
0,009	-4,7	-41,0
0,0095	-10,1	-43,4
0,01	-12,3	-45,7
0,0105	-11,5	-47,5
0,011	-9,6	-48,2
0,0115	-8,1	-47,6
0,012	-7,7	-45,7
0,0125	-8,2	-42,8
0,013	-9,7	-39,6
0,0135	-12,5	-36,8
0,014	-16,7	-34,7
0,0145	-21,6	-33,6
0,015	-26,7	-33,3
0,0155	-31,2	-33,9
0,016	-34,6	-35,0
0,0165	-36,5	-36,2
0,017	-36,9	-37,2
0,0175	-36,0	-37,8
0,018	-34,3	-37,6
0,0185	-32,6	-37,0
0,019	-30,9	-36,1
0,0195	-29,2	-35,1
0,02	-27,1	-34,3
0,0205	-24,9	-33,6
0,021	-22,9	-33,3
0,0215	-20,9	-33,5
0,022	-18,6	-34,0
0,0225	-15,8	-34,2
0,023	-12,3	-33,8
0,0235	-8,4	-32,8
0,024	-3,7	-31,3
0,0245	2,2	-29,6
0,025	8,3	-28,2
0,0255	13,0	-27,5
0,026	15,2	-27,7
0,0265	15,6	-28,6
0,027	15,3	-29,8
0,0275	14,6	-30,7
0,028	13,5	-30,6
0,0285	11,5	-29,7
0,029	8,8	-28,4
0,0295	6,1	-26,9
0,03	3,7	-25,5
0,0305	1,5	-24,2
0,031	-0,4	-23,3
0,0315	-2,2	-23,2
0,032	-3,5	-23,4
0,0325	-4,2	-23,5
0,033	-4,3	-22,8
0,0335	-4,0	-21,7
0,034	-3,7	-20,4
0,0345	-3,8	-19,8
0,035	-4,3	-20,2
0,0355	-5,0	-21,6
0,036	-6,0	-23,7
0,0365	-7,1	-26,0
0,037	-8,3	-28,3
0,0375	-9,8	-30,7
0,038	-11,5	-33,2
0,0385	-12,9	-35,6
0,039	-13,9	-37,7
0,0395	-14,2	-39,8
0,04	-13,7	-41,6
0,0405	-11,8	-42,3
0,041	-8,2	-41,2
0,0415	-3,6	-38,4
0,042	-0,2	-35,2
0,0425	0,3	-33,0
0,043	-2,1	-32,4
0,0435	-6,3	-33,5
0,044	-11,1	-35,8
0,0445	-15,5	-38,5
0,045	-18,8	-40,8
0,0455	-20,3	-41,8
0,046	-20,3	-41,4
0,0465	-18,9	-39,8
0,047	-16,3	-37,5
0,0475	-13,2	-35,2
0,048	-10,1	-33,2
0,0485	-7,5	-31,9
0,049	-5,9	-31,4
0,0495	-5,3	-31,5
0,05	-5,3	-32,0
0,0505	-5,7	-32,7
0,051	-6,3	-33,7
0,0515	-6,9	-34,7
0,052	-7,5	-35,8
0,0525	-8,1	-37,2
0,053	-8,6	-38,9
0,0535	-9,1	-40,4
0,054	-9,3	-41,3
0,0545	-9,3	-41,5
0,055	-9,0	-41,2
0,0555	-8,8	-40,8
0,056	-9,1	-40,5
0,0565	-9,7	-40,0
0,057	-10,6	-39,4
0,0575	-11,8	-38,9
0,058	-13,3	-38,5
0,0585	-14,5	-38,3
0,059	-15,5	-38,0
0,0595	-16,0	-37,8
0,06	-15,9	-37,7
0,0605	-15,3	-37,5
0,061	-14,4	-37,2
0,0615	-13,8	-36,6
0,062	-13,4	-35,7
0,0625	-13,0	-34,4
0,063	-12,7	-33,0
0,0635	-12,6	-31,8
0,064	-12,9	-31,1
0,0645	-13,5	-31,0
0,065	-14,5	-31,7
0,0655	-16,2	-33,1
0,066	-18,6	-34,9
0,0665	-21,3	-36,5
0,067	-23,6	-37,3
0,0675	-25,1	-37,0
0,068	-25,9	-36,2
0,0685	-26,2	-35,4
0,069	-26,3	-35,0
0,0695	-27,0	-35,2
0,07	-28,3	-35,7
0,0705	-29,4	-36,2
0,071	-29,3	-36,3
0,0715	-27,8	-35,9
0,072	-25,3	-35,1
0,0725	-21,9	-33,8
0,073	-18,0	-32,0
0,0735	-13,8	-29,8
0,074	-9,8	-27,5
0,0745	-6,1	-25,2
0,075	-3,1	-23,5
0,0755	-1,1	-22,6
0,076	-0,2	-22,5
0,0765	-0,3	-22,9
0,077	-1,0	-23,4
0,0775	-2,1	-24,1
0,078	-3,4	-25,1
0,0785	-5,3	-26,2
0,079	-7,8	-26,9
0,0795	-9,6	-26,9
0,08	-9,8	-26,2
0,0805	-8,4	-25,5
0,081	-6,7	-25,6
0,0815	-5,8	-26,8
0,082	-6,2	-29,3
0,0825	-7,3	-32,5
0,083	-8,1	-35,1
0,0835	-8,9	-36,3
0,084	-10,3	-36,0
0,0845	-13,3	-34,9
0,085	-18,1	-34,0
0,0855	-24,5	-34,4
0,086	-31,1	-35,8
0,0865	-36,1	-37,4
0,087	-38,4	-38,3
0,0875	-38,3	-38,3
0,088	-36,8	-37,9
0,0885	-34,8	-37,6
0,089	-32,7	-37,3
0,0895	-30,7	-36,8
0,09	-29,1	-35,9
0,0905	-28,0	-34,7
0,091	-27,4	-33,4
0,0915	-26,8	-32,3
0,092	-26,2	-31,6
0,0925	-24,9	-30,9
0,093	-22,5	-30,1
0,0935	-18,0	-28,9
0,094	-11,1	-27,5
0,0945	-2,5	-26,3
0,095	5,8	-26,0
0,0955	11,3	-27,2
0,096	13,1	-29,0
0,0965	11,3	-30,4
0,097	7,1	-30,7
0,0975	1,5	-30,0
0,098	-5,5	-28,6
0,0985	-13,8	-27,0
0,099	-22,6	-25,5
0,0995	-30,7	-24,4
0,1	-36,6	-24,0
0,1005	-39,1	-24,3
0,101	-38,2	-25,4
0,1015	-34,3	-27,2
0,102	-29,2	-29,3
0,1025	-25,1	-31,4
0,103	-23,2	-32,8
0,1035	-23,1	-33,5
0,104	-23,0	-33,4
0,1045	-21,7	-32,9
0,105	-18,4	-32,0
0,1055	-13,6	-30,4
0,106	-7,8	-28,3
0,1065	-2,0	-26,2
0,107	2,6	-24,6
0,1075	4,5	-24,1
0,108	2,9	-24,8
0,1085	-1,7	-26,3
0,109	-7,5	-27,9
0,1095	-12,3	-29,1
0,11	-14,3	-29,7
0,1105	-12,8	-30,0
0,111	-8,6	-30,3
0,1115	-3,3	-30,7
0,112	1,3	-30,7
0,1125	3,7	-30,2
0,113	4,1	-29,5
0,1135	3,1	-29,3
0,114	1,5	-29,8
0,1145	0,3	-31,0
0,115	0,5	-32,6
0,1155	3,4	-34,4
0,116	8,7	-35,9
0,1165	14,1	-37,1
0,117	16,6	-37,8
0,1175	14,7	-37,8
0,118	9,8	-37,2
0,1185	4,7	-36,3
0,119	1,3	-36,0
0,1195	0,5	-36,6
0,12	1,7	-38,2
0,1205	3,8	-40,1
0,121	5,6	-41,7
0,1215	6,5	-42,0
0,122	6,2	-40,6
0,1225	4,8	-38,0
0,123	2,8	-34,9
0,1235	0,0	-32,2
0,124	-3,4	-30,1
0,1245	-7,1	-28,7
0,125	-10,1	-27,9
0,1255	-11,4	-27,3
0,126	-10,8	-26,5
0,1265	-9,2	-25,7
0,127	-7,9	-25,0
0,1275	-8,1	-24,8
0,128	-10,1	-24,6
0,1285	-13,0	-24,1
0,129	-15,1	-22,8
0,1295	-15,0	-21,4
0,13	-12,5	-20,4
0,1305	-8,8	-20,5
0,131	-5,8	-21,7
0,1315	-4,4	-24,1
0,132	-5,0	-27,4
0,1325	-5,9	-31,7
0,133	-4,9	-36,1
0,1335	-1,6	-39,8
0,134	2,4	-42,2
0,1345	4,2	-43,4
0,135	3,0	-44,0
0,1355	0,3	-44,3
0,136	-2,0	-44,5
0,1365	-2,7	-44,6
0,137	-1,8	-44,7
0,1375	0,3	-44,2
0,138	2,4	-43,4
0,1385	3,9	-42,4
0,139	4,3	-41,6
0,1395	3,7	-41,1
0,14	2,3	-40,8
0,1405	0,8	-40,4
0,141	-0,3	-39,8
0,1415	-0,6	-39,0
0,142	0,0	-38,1
0,1425	1,6	-36,9
0,143	3,9	-35,1
0,1435	6,7	-32,8
0,144	9,6	-30,0
0,1445	12,5	-27,3
0,145	15,0	-24,7
0,1455	16,8	-22,5
0,146	17,5	-20,5
0,1465	17,3	-18,9
0,147	16,2	-18,1
0,1475	13,9	-18,5
0,148	10,7	-20,2
0,1485	6,8	-22,7
0,149	2,9	-25,2
0,1495	-0,7	-27,4
0,15	-3,9	-29,3
0,1505	-6,3	-31,0
0,151	-7,3	-32,3
0,1515	-6,5	-32,8
0,152	-4,5	-32,5
0,1525	-2,2	-32,2
0,153	-0,8	-32,5
0,1535	-1,0	-33,8
0,154	-2,8	-35,8
0,1545	-5,8	-38,2
0,155	-9,2	-40,7
0,1555	-12,2	-43,2
0,156	-14,2	-45,6
0,1565	-14,9	-47,3
0,157	-14,5	-48,2
0,1575	-13,3	-48,1
0,158	-11,7	-47,1
0,1585	-9,7	-45,3
0,159	-7,6	-43,0
0,1595	-5,5	-40,7
0,16	-3,8	-38,5
0,1605	-2,5	-36,8
0,161	-1,3	-35,3
0,1615	0,0	-33,9
0,162	1,4	-32,3
0,1625	2,7	-30,6
0,163	3,4	-28,9
0,1635	3,4	-27,5
0,164	2,8	-26,8
0,1645	1,4	-26,9
0,165	-0,5	-27,7
0,1655	-2,6	-28,6
0,166	-4,1	-29,0
0,1665	-4,8	-28,6
0,167	-4,9	-27,8
0,1675	-4,8	-27,0
0,168	-4,7	-26,5
0,1685	-4,8	-26,4
0,169	-5,3	-27,0
0,1695	-5,9	-28,0
0,17	-6,3	-29,2
0,1705	-6,0	-29,9
0,171	-5,3	-30,0
0,1715	-4,8	-29,6
0,172	-4,3	-28,7
0,1725	-3,1	-27,3
0,173	-0,6	-25,4
0,1735	2,7	-23,2
0,174	5,8	-21,1
0,1745	7,8	-19,6
0,175	9,1	-18,6
0,1755	10,2	-17,9
0,176	11,5	-17,2
0,1765	12,7	-16,3
0,177	12,9	-16,0
0,1775	11,4	-16,8
0,178	8,4	-19,0
0,1785	4,9	-21,7
0,179	2,2	-23,5
0,1795	1,1	-23,7
0,18	1,4	-22,5
0,1805	2,3	-20,9
0,181	3,3	-19,8
0,1815	4,7	-19,8
0,182	6,5	-20,6
0,1825	8,3	-21,8
0,183	9,5	-22,9
0,1835	9,7	-23,6
0,184	8,6	-24,3
0,1845	6,1	-25,4
0,185	2,1	-27,2
0,1855	-2,5	-29,5
0,186	-6,8	-32,0
0,1865	-10,1	-34,1
0,187	-11,7	-35,4
0,1875	-11,7	-35,8
0,188	-10,5	-35,4
0,1885	-8,8	-34,6
0,189	-7,0	-33,5
0,1895	-4,8	-32,2
0,19	-1,6	-30,2
0,1905	2,3	-27,3
0,191	6,2	-24,2
0,1915	9,4	-21,6
0,192	11,8	-20,1
0,1925	13,5	-19,7
0,193	14,9	-20,1
0,1935	16,3	-20,4
0,194	17,9	-20,0
0,1945	19,5	-18,8
0,195	20,8	-17,3
0,1955	20,6	-16,2
0,196	18,5	-16,0
0,1965	14,7	-16,9
0,197	9,9	-18,9
0,1975	5,2	-21,7
0,198	1,0	-24,6
0,1985	-2,3	-27,1
0,199	-4,5	-28,7
0,1995	-5,8	-29,0
0,2	-6,5	-27,9
0,2005	-6,4	-25,8
0,201	-4,9	-23,2
0,2015	-1,4	-20,9
0,202	4,5	-19,1
0,2025	12,4	-17,8
0,203	20,8	-16,9
0,2035	28,3	-16,5
0,204	34,0	-16,6
0,2045	38,0	-16,7
0,205	41,3	-16,3
0,2055	44,5	-15,0
0,206	47,8	-12,9
0,2065	50,7	-10,4
0,207	52,5	-8,1
0,2075	53,1	-6,5
0,208	52,8	-5,7
0,2085	52,4	-5,6
0,209	52,4	-5,8
0,2095	52,9	-6,3
0,21	52,8	-7,0
0,2105	50,3	-7,8
0,211	44,6	-8,9
0,2115	36,6	-10,4
0,212	28,5	-12,1
0,2125	22,3	-13,9
0,213	18,8	-15,5
0,2135	18,2	-17,0
0,214	20,4	-18,4
0,2145	24,5	-20,1
0,215	28,2	-22,6
0,2155	29,3	-26,3
0,216	27,0	-30,4
0,2165	22,5	-33,8
0,217	17,7	-35,8
0,2175	14,1	-36,3
0,218	12,2	-35,5
0,2185	12,0	-33,9
0,219	12,8	-31,6
0,2195	13,7	-29,3
0,22	13,8	-27,7
0,2205	13,2	-27,0
0,221	12,2	-27,3
0,2215	11,3	-27,9
0,222	11,1	-28,0
0,2225	11,6	-27,2
0,223	13,1	-25,6
0,2235	15,6	-23,6
0,224	19,3	-21,3
0,2245	24,0	-18,9
0,225	29,1	-16,6
0,2255	33,6	-15,2
0,226	37,0	-15,1
0,2265	38,7	-16,4
0,227	38,7	-18,4
0,2275	36,8	-20,3
0,228	33,5	-21,8
0,2285	29,7	-22,6
0,229	26,3	-23,0
0,2295	24,0	-22,9
0,23	22,9	-22,6
0,2305	22,5	-22,2
0,231	22,4	-22,2
0,2315	22,2	-23,0
0,232	21,9	-24,3
0,2325	22,1	-25,4
0,233	23,4	-25,4
0,2335	25,8	-24,1
0,234	28,5	-21,9
0,2345	30,8	-19,8
0,235	32,4	-18,1
0,2355	33,3	-17,4
0,236	33,6	-17,7
0,2365	33,8	-18,7
0,237	33,9	-20,0
0,2375	34,2	-21,3
0,238	34,2	-22,7
0,2385	33,3	-23,7
0,239	30,6	-24,4
0,2395	26,4	-25,1
0,24	21,6	-25,8
0,2405	17,4	-26,5
0,241	14,8	-26,5
0,2415	14,1	-25,5
0,242	15,1	-23,6
0,2425	16,9	-21,4
0,243	18,5	-20,0
0,2435	19,3	-19,8
0,244	19,2	-20,4
0,2445	18,4	-20,9
0,245	17,2	-21,0
0,2455	15,3	-20,6
0,246	12,8	-19,7
0,2465	10,4	-18,1
0,247	9,1	-15,8
0,2475	9,1	-12,8
0,248	9,9	-9,7
0,2485	10,5	-7,1
0,249	9,9	-5,6
0,2495	7,9	-5,1
0,25	4,6	-5,3
0,2505	0,7	-6,1
0,251	-2,1	-7,4
0,2515	-2,3	-9,3
0,252	0,2	-11,6
0,2525	3,8	-14,1
0,253	6,8	-16,8
0,2535	8,7	-19,6
0,254	9,8	-21,8
0,2545	10,8	-23,2
0,255	12,4	-23,3
0,2555	15,2	-22,4
0,256	20,6	-21,0
0,2565	28,8	-19,6
0,257	38,3	-18,8
0,2575	45,3	-19,3
0,258	47,6	-21,4
0,2585	45,0	-24,6
0,259	39,8	-27,7
0,2595	34,4	-30,1
0,26	30,3	-31,5
0,2605	27,6	-32,2
0,261	26,0	-32,2
0,2615	25,1	-31,5
0,262	24,4	-29,9
0,2625	24,1	-27,6
0,263	24,0	-24,8
0,2635	24,1	-22,0
0,264	24,3	-19,4
0,2645	24,4	-17,1
0,265	24,2	-15,3
0,2655	23,5	-13,9
0,266	22,4	-12,8
0,2665	21,0	-12,3
0,267	19,2	-12,5
0,2675	17,0	-13,6
0,268	14,5	-15,5
0,2685	11,9	-17,8
0,269	8,8	-19,7
0,2695	5,3	-20,9
0,27	1,8	-21,2
0,2705	-1,0	-20,5
0,271	-2,4	-19,3
0,2715	-2,1	-17,8
0,272	-0,0	-16,3
0,2725	3,4	-15,1
0,273	7,4	-14,1
0,2735	11,1	-13,2
0,274	13,8	-12,6
0,2745	15,7	-12,3
0,275	17,0	-12,4
0,2755	18,4	-12,8
0,276	20,2	-12,9
0,2765	22,2	-12,8
0,277	24,1	-12,9
0,2775	25,5	-13,4
0,278	26,0	-14,3
0,2785	25,6	-15,3
0,279	24,4	-16,2
0,2795	22,8	-16,7
0,28	21,4	-16,8
0,2805	21,4	-17,0
0,281	23,3	-17,6
0,2815	27,1	-18,7
0,282	31,1	-19,6
0,2825	33,4	-19,8
0,283	33,0	-19,2
0,2835	30,4	-17,8
0,284	26,9	-16,1
0,2845	23,3	-14,5
0,285	19,3	-13,7
0,2855	14,4	-14,5
0,286	9,3	-16,7
0,2865	5,4	-19,5
0,287	4,2	-21,4
0,2875	5,8	-21,8
0,288	9,7	-20,9
0,2885	14,2	-19,4
0,289	18,0	-17,5
0,2895	20,4	-15,2
0,29	21,3	-12,4
0,2905	20,9	-9,2
0,291	19,7	-6,5
0,2915	18,2	-4,8
0,292	16,5	-4,2
0,2925	15,0	-4,5
0,293	13,5	-5,0
0,2935	11,7	-5,4
0,294	8,8	-5,4
0,2945	4,3	-5,5
0,295	-1,5	-6,0
0,2955	-7,1	-7,3
0,296	-10,4	-9,3
0,2965	-10,1	-11,3
0,297	-6,6	-12,7
0,2975	-1,0	-13,3
0,298	5,1	-13,1
0,2985	10,6	-12,6
0,299	14,7	-12,2
0,2995	17,3	-12,0
0,3	18,8	-12,2
0,3005	19,5	-12,4
0,301	19,2	-12,4
0,3015	18,3	-11,9
0,302	17,7	-11,0
0,3025	17,8	-10,0
0,303	18,8	-9,3
0,3035	20,0	-9,8
0,304	20,8	-11,8
0,3045	20,4	-15,1
0,305	18,9	-18,4
0,3055	17,1	-20,8
0,306	15,8	-21,9
0,3065	15,3	-21,7
0,307	15,7	-20,8
0,3075	16,8	-19,5
0,308	18,1	-18,4
0,3085	18,7	-17,9
0,309	18,1	-18,2
0,3095	16,7	-18,8
0,31	15,4	-19,2
0,3105	14,8	-18,8
0,311	15,2	-17,3
0,3115	16,3	-15,1
0,312	17,5	-12,6
0,3125	18,1	-9,9
0,313	17,9	-7,2
0,3135	17,2	-4,4
0,314	16,3	-1,8
0,3145	15,4	0,3
0,315	14,8	1,6
0,3155	14,8	2,3
0,316	15,6	2,4
0,3165	16,7	1,7
0,317	18,1	0,2
0,3175	19,4	-2,1
0,318	20,5	-4,5
0,3185	21,3	-6,5
0,319	21,7	-8,4
0,3195	21,8	-10,3
0,32	21,5	-11,8
0,3205	21,2	-12,5
0,321	21,3	-11,9
0,3215	22,4	-10,2
0,322	24,5	-7,8
0,3225	26,6	-5,3
0,323	27,1	-3,0
0,3235	24,8	-1,3
0,324	19,6	-0,3
0,3245	12,7	0,0
0,325	5,6	-0,2
0,3255	-1,2	-0,7
0,326	-7,6	-1,1
0,3265	-14,1	-1,8
0,327	-20,8	-3,1
0,3275	-27,4	-5,3
0,328	-32,8	-8,1
0,3285	-35,4	-10,8
0,329	-34,1	-12,2
0,3295	-29,3	-11,6
0,33	-22,1	-9,0
0,3305	-14,1	-5,0
0,331	-6,5	-0,6
0,3315	-0,4	3,2
0,332	4,2	5,6
0,3325	7,9	6,8
0,333	11,4	7,5
0,3335	14,5	7,8
0,334	16,2	7,6
0,3345	15,1	6,5
0,335	11,1	4,2
0,3355	5,6	1,1
0,336	2,0	-2,8
0,3365	3,5	-6,9
0,337	11,3	-10,7
0,3375	23,3	-13,6
0,338	35,6	-15,9
0,3385	43,7	-18,1
0,339	44,8	-20,6
0,3395	39,7	-23,2
0,34	31,3	-25,4
0,3405	23,0	-26,8
0,341	17,0	-27,4
0,3415	13,8	-27,3
0,342	12,9	-26,5
0,3425	13,4	-24,9
0,343	14,6	-22,7
0,3435	16,0	-20,0
0,344	17,4	-17,2
0,3445	18,9	-14,4
0,345	20,4	-11,7
0,3455	22,1	-9,2
0,346	23,4	-6,9
0,3465	23,7	-5,0
0,347	23,0	-3,4
0,3475	21,8	-2,3
0,348	20,9	-1,7
0,3485	20,7	-1,3
0,349	21,5	-0,8
0,3495	23,3	0,5
0,35	25,8	2,2
0,3505	28,3	4,0
0,351	30,3	5,6
0,3515	31,5	6,7
0,352	32,3	7,3
0,3525	32,6	7,5
0,353	32,3	7,4
0,3535	31,0	6,8
0,354	28,4	5,1
0,3545	24,7	2,6
0,355	20,2	-0,7
0,3555	15,3	-4,2
0,356	10,8	-7,8
0,3565	7,2	-11,2
0,357	4,2	-14,2
0,3575	1,5	-16,8
0,358	-0,5	-18,7
0,3585	-1,3	-20,1
0,359	-0,6	-20,9
0,3595	1,2	-21,1
0,36	3,0	-20,8
0,3605	4,1	-20,3
0,361	4,1	-19,7
0,3615	3,3	-18,9
0,362	2,5	-17,7
0,3625	2,3	-16,1
0,363	3,0	-14,4
0,3635	4,7	-12,7
0,364	6,8	-11,2
0,3645	9,2	-9,9
0,365	11,3	-9,0
0,3655	12,8	-8,3
0,366	13,5	-8,0
0,3665	13,4	-7,9
0,367	13,0	-8,0
0,3675	12,7	-8,1
0,368	12,3	-8,0
0,3685	11,7	-7,8
0,369	10,9	-7,5
0,3695	10,1	-7,6
0,37	9,4	-8,7
0,3705	8,5	-10,6
0,371	6,7	-12,8
0,3715	3,8	-14,3
0,372	0,7	-14,7
0,3725	-1,6	-14,3
0,373	-2,6	-13,7
0,3735	-2,8	-13,1
0,374	-2,9	-12,6
0,3745	-3,1	-12,3
0,375	-2,8	-12,2
0,3755	-1,4	-12,0
0,376	0,9	-11,7
0,3765	3,9	-11,0
0,377	7,3	-10,0
0,3775	10,4	-9,0
0,378	12,8	-8,4
0,3785	13,7	-8,2
0,379	13,6	-8,0
0,3795	13,3	-7,5
0,38	13,1	-6,7
0,3805	12,8	-5,6
0,381	12,5	-4,5
0,3815	12,2	-3,5
0,382	11,7	-2,4
0,3825	10,3	-1,4
0,383	7,9	-0,7
0,3835	5,0	-0,4
0,384	2,7	-0,9
0,3845	2,2	-1,6
0,385	3,8	-2,2
0,3855	7,0	-2,4
0,386	10,8	-2,4
0,3865	14,4	-2,9
0,387	17,1	-4,3
0,3875	18,6	-6,2
0,388	19,2	-8,2
0,3885	19,7	-10,0
0,389	21,3	-11,3
0,3895	24,2	-12,4
0,39	27,2	-14,1
0,3905	27,8	-17,1
0,391	25,5	-21,5
0,3915	21,4	-26,3
0,392	17,0	-30,2
0,3925	13,3	-32,0
0,393	10,9	-31,3
0,3935	10,0	-28,6
0,394	10,3	-24,9
0,3945	10,8	-21,1
0,395	11,4	-17,6
0,3955	12,1	-14,3
0,396	13,2	-11,8
0,3965	14,6	-10,2
0,397	16,3	-9,9
0,3975	18,2	-10,5
0,398	20,3	-11,7
0,3985	21,8	-13,2
0,399	21,8	-14,7
0,3995	20,3	-16,0
0,4	17,9	-16,8
0,4005	15,4	-16,7
0,401	12,7	-15,9
0,4015	9,3	-14,9
0,402	5,2	-14,3
0,4025	1,4	-14,2
0,403	-0,6	-14,3
0,4035	-0,2	-13,9
0,404	2,3	-13,3
0,4045	5,4	-13,1
0,405	7,8	-13,9
0,4055	9,0	-15,5
0,406	8,6	-17,5
0,4065	7,0	-19,2
0,407	4,9	-19,9
0,4075	2,9	-19,2
0,408	2,0	-17,2
0,4085	2,7	-14,3
0,409	5,0	-11,1
0,4095	8,1	-8,1
0,41	10,8	-5,6
0,4105	12,2	-3,6
0,411	11,7	-2,0
0,4115	9,4	-0,7
0,412	6,8	0,2
0,4125	5,7	1,0
0,413	7,4	1,6
0,4135	11,2	1,0
0,414	15,0	-1,5
0,4145	17,0	-5,6
0,415	17,0	-10,1
0,4155	15,9	-13,4
0,416	15,5	-14,7
0,4165	16,8	-14,2
0,417	19,5	-12,8
0,4175	21,4	-11,7
0,418	20,3	-12,1
0,4185	15,1	-14,3
0,419	7,0	-18,2
0,4195	-2,1	-22,7
0,42	-10,3	-26,3
0,4205	-16,3	-28,1
0,421	-19,3	-28,2
0,4215	-19,6	-27,0
0,422	-17,8	-25,3
0,4225	-15,2	-23,6
0,423	-13,2	-22,0
0,4235	-12,0	-20,7
0,424	-11,6	-19,7
0,4245	-11,1	-18,9
0,425	-9,7	-18,0
0,4255	-7,0	-16,7
0,426	-2,8	-15,2
0,4265	2,6	-13,4
0,427	8,3	-11,8
0,4275	13,1	-10,6
0,428	16,1	-10,0
0,4285	17,7	-9,9
0,429	18,3	-9,8
0,4295	18,4	-9,6
0,43	17,9	-9,3
0,4305	16,5	-9,2
0,431	13,8	-9,7
0,4315	9,7	-10,8
0,432	4,5	-12,5
0,4325	-1,8	-14,4
0,433	-8,8	-15,9
0,4335	-15,4	-16,4
0,434	-19,9	-16,2
0,4345	-21,5	-15,5
0,435	-20,0	-14,9
0,4355	-16,7	-14,9
0,436	-12,5	-15,4
0,4365	-8,6	-16,0
0,437	-5,3	-16,2
0,4375	-2,8	-16,0
0,438	-0,8	-15,6
0,4385	0,9	-15,0
0,439	2,7	-14,0
0,4395	4,8	-12,5
0,44	7,1	-10,3
0,4405	9,4	-7,8
0,441	11,3	-5,1
0,4415	12,4	-2,7
0,442	13,0	-0,7
0,4425	13,0	0,8
0,443	12,6	1,9
0,4435	11,4	2,6
0,444	10,1	2,8
0,4445	9,9	2,2
0,445	11,5	0,3
0,4455	14,0	-2,8
0,446	15,7	-6,6
0,4465	15,8	-9,9
0,447	14,4	-12,4
0,4475	12,5	-14,0
0,448	10,7	-14,7
0,4485	8,6	-15,1
0,449	5,2	-15,5
0,4495	0,2	-16,4
0,45	-5,6	-17,9
0,4505	-10,3	-19,7
0,451	-12,1	-21,2
0,4515	-10,5	-22,0
0,452	-6,4	-22,3
0,4525	-1,5	-22,7
0,453	3,0	-23,3
0,4535	7,1	-23,9
0,454	10,7	-24,3
0,4545	12,9	-24,0
0,455	13,0	-23,3
0,4555	11,2	-22,4
0,456	8,7	-21,1
0,4565	6,9	-19,6
0,457	6,4	-17,9
0,4575	7,2	-16,4
0,458	8,9	-15,0
0,4585	10,9	-13,8
0,459	12,7	-12,6
0,4595	14,1	-11,2
0,46	14,9	-9,3
0,4605	15,1	-7,1
0,461	14,7	-4,8
0,4615	14,1	-2,8
0,462	13,5	-1,5
0,4625	13,0	-0,6
0,463	12,9	0,4
0,4635	13,5	1,7
0,464	14,6	3,3
0,4645	15,8	5,2
0,465	16,4	7,1
0,4655	16,2	8,7
0,466	15,3	9,9
0,4665	14,5	10,5
0,467	14,2	10,1
0,4675	13,8	8,4
0,468	11,9	5,0
0,4685	8,0	0,1
0,469	2,4	-6,0
0,4695	-3,4	-12,3
0,47	-8,2	-18,0
0,4705	-11,3	-22,4
0,471	-13,4	-25,9
0,4715	-15,5	-29,0
0,472	-17,3	-31,4
0,4725	-18,0	-32,8
0,473	-16,5	-33,0
0,4735	-12,7	-32,5
0,474	-7,4	-32,0
0,4745	-1,5	-31,8
0,475	3,8	-31,7
0,4755	8,0	-31,6
0,476	10,9	-31,1
0,4765	13,1	-29,6
0,477	14,8	-27,0
0,4775	16,3	-23,6
0,478	17,6	-20,1
0,4785	18,8	-17,0
0,479	19,4	-14,6
0,4795	19,1	-12,8
0,48	17,9	-11,6
0,4805	16,0	-11,1
0,481	13,8	-11,1
0,4815	11,5	-11,8
0,482	9,4	-13,3
0,4825	7,6	-15,7
0,483	6,6	-18,6
0,4835	6,4	-21,2
0,484	6,9	-22,6
0,4845	7,5	-22,5
0,485	8,0	-21,8
0,4855	8,5	-21,0
0,486	8,8	-20,6
0,4865	8,8	-20,6
0,487	7,9	-20,7
0,4875	6,3	-20,8
0,488	4,2	-21,2
0,4885	2,0	-21,5
0,489	0,3	-21,4
0,4895	-1,0	-20,7
0,49	-1,9	-19,3
0,4905	-2,8	-17,5
0,491	-3,6	-15,8
0,4915	-4,1	-14,6
0,492	-4,0	-13,8
0,4925	-3,1	-13,1
0,493	-1,6	-12,1
0,4935	0,6	-10,6
0,494	3,2	-8,7
0,4945	5,8	-6,4
0,495	7,9	-4,0
0,4955	8,9	-2,2
0,496	8,6	-1,3
0,4965	7,3	-1,3
0,497	5,6	-2,0
0,4975	5,2	-2,8
0,498	7,1	-3,7
0,4985	10,8	-4,5
0,499	14,1	-5,4
0,4995	15,1	-6,5
0,5	13,3	-7,7
0,5005	9,7	-8,9
0,501	5,3	-9,9
0,5015	0,9	-10,9
0,502	-3,3	-11,6
0,5025	-7,2	-12,3
0,503	-10,9	-13,5
0,5035	-14,0	-16,0
0,504	-15,7	-19,6
0,5045	-15,4	-23,4
0,505	-13,3	-26,8
0,5055	-10,6	-29,1
0,506	-7,7	-29,9
0,5065	-4,5	-29,2
0,507	-0,5	-27,1
0,5075	4,3	-24,3
0,508	8,7	-21,6
0,5085	11,3	-19,8
0,509	11,2	-19,2
0,5095	9,6	-19,4
0,51	8,1	-19,9
0,5105	8,1	-20,2
0,511	9,8	-19,7
0,5115	12,6	-18,4
0,512	16,0	-16,3
0,5125	18,9	-13,6
0,513	20,1	-10,8
0,5135	19,4	-8,3
0,514	17,7	-6,3
0,5145	15,7	-4,9
0,515	14,1	-4,4
0,5155	12,5	-5,0
0,516	10,4	-6,5
0,5165	7,3	-8,0
0,517	3,1	-8,7
0,5175	-1,7	-8,6
0,518	-6,2	-8,3
0,5185	-10,1	-8,2
0,519	-12,8	-8,6
0,5195	-14,1	-9,5
0,52	-13,8	-11,0
0,5205	-12,6	-12,8
0,521	-11,0	-14,5
0,5215	-9,4	-16,1
0,522	-7,6	-17,1
0,5225	-5,5	-17,3
0,523	-3,0	-17,0
0,5235	-0,8	-16,8
0,524	1,0	-17,0
0,5245	2,8	-17,5
0,525	5,3	-17,8
0,5255	8,1	-17,8
0,526	10,6	-17,5
0,5265	12,0	-17,2
0,527	12,2	-16,9
0,5275	11,8	-16,6
0,528	11,1	-16,4
0,5285	10,4	-16,6
0,529	9,5	-17,4
0,5295	8,6	-18,4
0,53	8,2	-19,1
0,5305	8,5	-19,0
0,531	9,1	-18,3
0,5315	9,7	-17,4
0,532	10,0	-16,5
0,5325	10,1	-15,8
0,533	10,0	-15,4
0,5335	9,7	-15,3
0,534	9,0	-15,7
0,5345	8,2	-16,2
0,535	7,5	-16,6
0,5355	6,7	-17,2
0,536	5,0	-17,9
0,5365	0,8	-18,9
0,537	-6,9	-19,9
0,5375	-17,8	-20,6
0,538	-29,2	-20,7
0,5385	-38,2	-20,0
0,539	-43,0	-18,8
0,5395	-43,3	-17,5
0,54	-40,3	-16,5
0,5405	-34,9	-15,7
0,541	-28,2	-14,8
0,5415	-20,8	-13,6
0,542	-12,9	-12,1
0,5425	-4,7	-10,4
0,543	3,6	-8,6
0,5435	11,2	-6,8
0,544	17,3	-5,6
0,5445	21,5	-5,2
0,545	23,7	-5,6
0,5455	24,9	-6,5
0,546	26,2	-7,4
0,5465	28,2	-7,8
0,547	30,6	-7,5
0,5475	31,7	-7,0
0,548	29,9	-6,6
0,5485	24,2	-6,8
0,549	15,9	-8,3
0,5495	8,4	-11,1
0,55	5,1	-14,5
0,5505	6,9	-17,4
0,551	11,9	-19,1
0,5515	17,3	-19,6
0,552	21,7	-19,6
0,5525	24,5	-19,8
0,553	24,9	-20,4
0,5535	22,4	-21,2
0,554	17,3	-22,0
0,5545	11,3	-22,4
0,555	6,3	-22,3
0,5555	3,5	-21,6
0,556	3,2	-20,6
0,5565	5,0	-19,3
0,557	8,2	-18,1
0,5575	11,8	-17,0
0,558	15,4	-16,3
0,5585	18,8	-15,7
0,559	21,8	-14,7
0,5595	24,6	-12,8
0,56	26,5	-10,3
0,5605	27,0	-7,7
0,561	26,1	-5,3
0,5615	24,9	-3,5
0,562	24,6	-2,4
0,5625	25,6	-1,9
0,563	28,2	-1,6
0,5635	32,3	-1,2
0,564	36,8	-0,7
0,5645	39,3	-0,4
0,565	36,8	-0,9
0,5655	29,0	-2,6
0,566	18,0	-5,2
0,5665	7,0	-8,3
0,567	-1,6	-11,1
0,5675	-6,9	-13,4
0,568	-9,1	-15,3
0,5685	-9,3	-17,0
0,569	-8,5	-18,7
0,5695	-7,2	-20,5
0,57	-5,7	-22,3
0,5705	-3,8	-24,1
0,571	-1,3	-25,9
0,5715	1,9	-27,2
0,572	5,7	-27,3
0,5725	9,7	-26,0
0,573	13,9	-23,3
0,5735	18,4	-19,6
0,574	23,5	-15,7
0,5745	29,3	-11,9
0,575	35,4	-8,6
0,5755	40,8	-6,1
0,576	43,6	-5,1
0,5765	42,8	-5,9
0,577	38,8	-8,3
0,5775	33,3	-10,8
0,578	28,0	-12,2
0,5785	23,7	-11,8
0,579	20,4	-10,0
0,5795	17,9	-7,4
0,58	16,0	-4,8
0,5805	14,4	-2,8
0,581	12,7	-1,8
0,5815	10,8	-2,3
0,582	9,3	-4,4
0,5825	8,0	-8,0
0,583	6,7	-12,8
0,5835	5,0	-18,4
0,584	3,4	-23,8
0,5845	2,4	-28,2
0,585	1,6	-30,7
0,5855	0,5	-31,3
0,586	-1,1	-30,5
0,5865	-3,2	-29,3
0,587	-5,0	-28,3
0,5875	-5,4	-27,4
0,588	-4,0	-26,5
0,5885	-0,6	-25,1
0,589	4,9	-23,3
0,5895	12,0	-21,0
0,59	19,4	-18,6
0,5905	25,6	-16,4
0,591	28,7	-15,0
0,5915	28,8	-14,4
0,592	26,9	-14,3
0,5925	24,8	-14,0
0,593	23,6	-13,1
0,5935	23,4	-11,6
0,594	23,6	-9,9
0,5945	23,6	-8,3
0,595	22,7	-7,2
0,5955	21,5	-6,6
0,596	21,6	-6,0
0,5965	24,7	-5,0
0,597	30,3	-3,6
0,5975	35,6	-2,7
0,598	37,6	-3,2
0,5985	35,6	-5,0
0,599	30,9	-7,4
0,5995	25,3	-9,3
0,6	20,3	-10,3
0,6005	16,2	-10,4
0,601	13,6	-9,9
0,6015	12,7	-9,0
0,602	13,0	-8,2
0,6025	13,6	-8,0
0,603	13,6	-8,8
0,6035	13,0	-10,1
0,604	12,4	-11,3
0,6045	11,7	-11,9
0,605	10,7	-12,1
0,6055	9,6	-11,9
0,606	8,6	-11,4
0,6065	7,7	-10,7
0,607	6,5	-9,7
0,6075	5,0	-8,3
0,608	3,8	-6,7
0,6085	3,1	-4,7
0,609	3,0	-2,4
0,6095	3,7	0,1
0,61	5,0	2,4
0,6105	7,0	4,2
0,611	9,4	4,9
0,6115	11,8	4,5
0,612	13,7	3,2
0,6125	14,8	1,3
0,613	15,4	-0,8
0,6135	15,3	-2,8
0,614	14,6	-4,5
0,6145	13,6	-5,7
0,615	12,2	-6,5
0,6155	9,9	-7,6
0,616	6,6	-9,3
0,6165	2,9	-11,4
0,617	0,4	-13,3
0,6175	-0,4	-14,3
0,618	-0,5	-14,5
0,6185	-1,3	-14,8
0,619	-2,8	-15,8
0,6195	-4,2	-17,8
0,62	-4,0	-20,4
0,6205	-1,7	-22,9
0,621	2,6	-24,8
0,6215	7,9	-25,5
0,622	13,0	-24,9
0,6225	16,6	-23,5
0,623	18,4	-22,0
0,6235	18,6	-21,0
0,624	17,8	-20,2
0,6245	16,8	-19,1
0,625	16,0	-17,8
0,6255	15,2	-16,4
0,626	14,1	-15,3
0,6265	12,8	-14,4
0,627	11,7	-13,3
0,6275	11,2	-11,8
0,628	11,3	-10,1
0,6285	12,0	-8,6
0,629	12,9	-7,8
0,6295	13,6	-7,5
0,63	13,8	-7,3
0,6305	13,3	-7,0
0,631	12,3	-6,4
0,6315	11,0	-6,0
0,632	9,7	-5,9
0,6325	8,1	-6,5
0,633	6,0	-7,5
0,6335	3,6	-8,7
0,634	1,4	-9,8
0,6345	0,4	-10,6
0,635	0,9	-10,7
0,6355	2,8	-10,3
0,636	5,3	-10,0
0,6365	7,9	-9,8
0,637	10,5	-9,4
0,6375	13,1	-8,8
0,638	15,6	-8,1
0,6385	17,4	-7,4
0,639	17,9	-6,8
0,6395	17,2	-6,1
0,64	15,0	-5,6
0,6405	11,6	-5,6
0,641	7,7	-6,2
0,6415	4,4	-7,5
0,642	3,0	-9,2
0,6425	3,9	-10,6
0,643	7,2	-10,7
0,6435	11,8	-9,4
0,644	15,9	-7,3
0,6445	17,9	-5,1
0,645	17,4	-3,4
0,6455	15,0	-2,3
0,646	11,5	-1,6
0,6465	8,3	-1,1
0,647	6,9	-0,2
0,6475	8,1	1,5
0,648	11,2	4,0
0,6485	14,2	6,7
0,649	15,4	8,3
0,6495	14,0	8,4
0,65	10,7	6,5
0,6505	6,1	2,8
0,651	0,9	-2,6
0,6515	-4,1	-8,8
0,652	-8,2	-14,9
0,6525	-10,8	-19,9
0,653	-12,1	-23,2
0,6535	-12,8	-24,6
0,654	-13,8	-24,4
0,6545	-15,1	-23,3
0,655	-15,6	-21,7
0,6555	-15,0	-20,1
0,656	-13,3	-18,6
0,6565	-11,4	-17,1
0,657	-9,6	-15,7
0,6575	-8,1	-14,5
0,658	-6,6	-13,6
0,6585	-4,7	-12,7
0,659	-2,2	-11,8
0,6595	0,2	-11,2
0,66	1,8	-11,1
0,6605	2,3	-11,1
0,661	1,7	-10,4
0,6615	0,5	-8,7
0,662	-0,9	-6,3
0,6625	-2,6	-3,7
0,663	-4,3	-1,1
0,6635	-5,8	1,3
0,664	-7,1	3,6
0,6645	-9,2	5,6
0,665	-12,4	7,0
0,6655	-15,9	7,4
0,666	-18,2	6,4
0,6665	-17,7	4,3
0,667	-14,5	2,0
0,6675	-9,8	0,7
0,668	-5,0	0,7
0,6685	-1,3	1,4
0,669	0,9	2,3
0,6695	2,1	3,1
0,67	3,6	3,8
0,6705	6,4	4,3
0,671	11,0	4,7
0,6715	16,4	4,7
0,672	20,8	4,2
0,6725	22,6	2,9
0,673	21,0	0,4
0,6735	17,4	-3,2
0,674	13,7	-7,4
0,6745	10,6	-11,5
0,675	8,1	-15,2
0,6755	6,0	-18,0
0,676	4,4	-19,8
0,6765	3,3	-20,2
0,677	2,5	-19,3
0,6775	0,8	-17,8
0,678	-2,2	-16,6
0,6785	-5,5	-16,0
0,679	-7,6	-15,7
0,6795	-7,6	-15,1
0,68	-5,9	-14,2
0,6805	-3,7	-13,2
0,681	-1,8	-12,4
0,6815	-0,3	-11,7
0,682	0,9	-10,9
0,6825	1,4	-9,8
0,683	1,2	-8,4
0,6835	-0,0	-7,3
0,684	-1,8	-6,7
0,6845	-3,2	-6,6
0,685	-3,3	-6,7
0,6855	-1,5	-6,6
0,686	1,3	-6,6
0,6865	3,7	-6,6
0,687	4,8	-6,8
0,6875	4,9	-6,8
0,688	4,7	-6,7
0,6885	4,5	-6,3
0,689	4,3	-5,4
0,6895	4,1	-3,9
0,69	4,5	-1,7
0,6905	5,4	0,7
0,691	6,7	2,8
0,6915	7,9	4,6
0,692	8,8	6,1
0,6925	9,1	7,4
0,693	8,5	8,6
0,6935	6,5	9,4
0,694	1,8	9,9
0,6945	-6,0	10,0
0,695	-15,8	9,8
0,6955	-24,8	9,2
0,696	-31,2	8,5
0,6965	-33,8	7,8
0,697	-32,6	6,9
0,6975	-28,0	6,2
0,698	-21,3	5,5
0,6985	-14,3	4,7
0,699	-8,8	3,3
0,6995	-4,8	1,3
0,7	-1,6	-0,2
0,7005	1,8	-0,3
0,701	5,3	0,9
0,7015	7,3	2,2
0,702	7,0	2,5
0,7025	5,2	1,5
0,703	3,4	-0,1
0,7035	2,4	-1,4
0,704	2,3	-2,0
0,7045	2,7	-1,8
0,705	3,3	-0,9
0,7055	3,8	0,3
0,706	4,4	1,1
0,7065	5,4	0,9
0,707	6,4	-0,1
0,7075	6,2	-1,5
0,708	3,4	-2,9
0,7085	-1,5	-4,2
0,709	-6,7	-5,3
0,7095	-10,0	-6,3
0,71	-10,3	-7,5
0,7105	-8,3	-8,9
0,711	-4,3	-9,9
0,7115	1,7	-9,9
0,712	9,9	-8,5
0,7125	19,0	-5,8
0,713	26,6	-2,7
0,7135	31,7	-0,3
0,714	35,2	0,7
0,7145	38,2	0,5
0,715	40,5	-0,3
0,7155	41,1	-1,0
0,716	39,5	-0,9
0,7165	36,2	0,0
0,717	32,3	1,4
0,7175	28,3	2,7
0,718	24,1	3,3
0,7185	19,8	3,2
0,719	15,4	2,3
0,7195	11,2	0,9
0,72	7,0	-1,1
0,7205	3,0	-3,7
0,721	-0,4	-6,0
0,7215	-2,8	-7,7
0,722	-3,9	-8,2
0,7225	-4,3	-7,6
0,723	-4,3	-6,2
0,7235	-4,1	-4,3
0,724	-4,1	-2,2
0,7245	-4,2	-0,6
0,725	-4,3	0,4
0,7255	-4,6	0,9
0,726	-5,0	1,1
0,7265	-5,8	1,1
0,727	-6,7	1,5
0,7275	-7,2	2,3
0,728	-6,9	3,4
0,7285	-5,9	4,8
0,729	-4,8	5,9
0,7295	-4,0	6,8
0,73	-3,4	7,4
0,7305	-2,8	8,2
0,731	-2,0	9,3
0,7315	-0,7	10,5
0,732	1,3	11,4
0,7325	3,7	11,7
0,733	5,6	11,5
0,7335	6,4	10,9
0,734	6,2	10,3
0,7345	5,7	10,1
0,735	5,0	9,8
0,7355	3,6	8,6
0,736	0,6	6,2
0,7365	-4,0	3,1
0,737	-8,6	0,6
0,7375	-11,1	-1,1
0,738	-10,3	-1,7
0,7385	-6,4	-1,5
0,739	-0,7	-0,7
0,7395	5,1	0,5
0,74	9,3	1,3
0,7405	10,7	1,0
0,741	9,4	-0,4
0,7415	6,5	-2,3
0,742	2,9	-3,9
0,7425	-0,6	-4,3
0,743	-3,6	-3,7
0,7435	-5,8	-2,3
0,744	-7,5	-0,3
0,7445	-8,8	2,1
0,745	-9,9	4,8
0,7455	-10,8	7,5
0,746	-11,3	9,9
0,7465	-11,2	11,8
0,747	-10,2	13,1
0,7475	-8,8	13,7
0,748	-6,8	13,4
0,7485	-4,3	12,0
0,749	-0,9	9,6
0,7495	3,9	6,8
0,75	9,5	4,7
0,7505	15,0	3,9
0,751	19,2	4,8
0,7515	21,7	6,8
0,752	22,7	8,6
0,7525	22,4	9,3
0,753	21,3	8,2
0,7535	19,9	5,7
0,754	19,3	2,8
0,7545	19,8	0,3
0,755	20,6	-1,6
0,7555	20,1	-2,9
0,756	17,7	-3,8
0,7565	14,2	-4,3
0,757	10,9	-4,2
0,7575	8,5	-3,6
0,758	7,0	-3,1
0,7585	6,0	-2,9
0,759	5,3	-3,0
0,7595	4,5	-3,2
0,76	3,3	-3,4
0,7605	1,4	-3,4
0,761	-0,6	-3,2
0,7615	-1,9	-2,4
0,762	-1,5	-0,8
0,7625	0,7	1,5
0,763	4,3	4,1
0,7635	7,8	6,3
0,764	10,1	7,4
0,7645	11,0	7,4
0,765	10,2	6,7
0,7655	6,9	5,7
0,766	1,0	4,7
0,7665	-6,2	3,6
0,767	-12,5	2,1
0,7675	-15,9	0,4
0,768	-16,1	-1,4
0,7685	-14,1	-2,9
0,769	-11,3	-4,1
0,7695	-8,7	-4,8
0,77	-6,3	-5,3
0,7705	-3,9	-5,2
0,771	-1,2	-4,7
0,7715	1,7	-4,0
0,772	4,6	-3,1
0,7725	7,1	-2,2
0,773	8,9	-1,2
0,7735	10,3	0,3
0,774	11,6	2,1
0,7745	12,7	4,0
0,775	14,0	5,7
0,7755	15,5	7,2
0,776	16,8	8,6
0,7765	15,9	9,8
0,777	11,2	10,4
0,7775	3,2	10,3
0,778	-5,2	9,9
0,7785	-10,8	9,9
0,779	-12,9	10,5
0,7795	-12,6	11,5
0,78	-11,3	12,7
0,7805	-9,3	13,9
0,781	-6,9	15,2
0,7815	-4,2	16,3
0,782	-1,3	16,9
0,7825	1,4	17,2
0,783	3,6	17,0
0,7835	5,0	16,4
0,784	5,7	15,3
0,7845	5,8	13,9
0,785	6,3	12,6
0,7855	7,7	11,6
0,786	9,5	11,0
0,7865	10,7	10,3
0,787	10,6	9,3
0,7875	10,0	7,6
0,788	10,8	5,9
0,7885	13,8	4,8
0,789	18,3	4,2
0,7895	22,3	3,8
0,79	24,0	3,0
0,7905	23,5	1,6
0,791	21,8	-0,6
0,7915	20,3	-3,0
0,792	19,8	-5,2
0,7925	19,8	-7,0
0,793	20,0	-8,1
0,7935	20,1	-8,2
0,794	20,0	-7,0
0,7945	19,6	-4,8
0,795	18,2	-2,3
0,7955	15,3	0,3
0,796	11,3	2,7
0,7965	7,0	4,8
0,797	3,3	6,8
0,7975	0,6	8,4
0,798	-1,4	9,7
0,7985	-3,0	10,7
0,799	-4,5	11,0
0,7995	-6,5	10,4
0,8	-9,1	8,6
0,8005	-11,9	6,0
0,801	-14,6	3,2
0,8015	-16,6	0,5
0,802	-17,6	-1,9
0,8025	-17,5	-3,9
0,803	-16,3	-5,0
0,8035	-14,3	-5,1
0,804	-11,9	-4,4
0,8045	-9,6	-3,5
0,805	-7,4	-2,8
0,8055	-5,2	-2,3
0,806	-3,0	-1,9
0,8065	-1,3	-1,3
0,807	-0,3	-0,4
0,8075	0,4	0,7
0,808	1,0	1,8
0,8085	1,9	2,9
0,809	3,0	4,0
0,8095	4,5	5,3
0,81	6,5	6,8
0,8105	8,9	8,5
0,811	11,2	10,4
0,8115	13,3	12,5
0,812	14,8	14,6
0,8125	14,8	16,6
0,813	12,2	17,8
0,8135	6,8	17,6
0,814	0,1	16,0
0,8145	-5,6	13,8
0,815	-8,2	12,0
0,8155	-6,6	11,3
0,816	-1,3	11,8
0,8165	6,2	13,3
0,817	13,9	15,2
0,8175	20,2	17,2
0,818	24,0	18,8
0,8185	24,8	19,8
0,819	23,2	20,1
0,8195	20,0	19,8
0,82	16,6	19,2
0,8205	13,6	18,3
0,821	11,1	17,3
0,8215	8,2	15,8
0,822	4,4	13,3
0,8225	0,0	10,3
0,823	-4,6	7,4
0,8235	-9,2	5,4
0,824	-13,5	4,5
0,8245	-17,1	4,3
0,825	-18,7	4,5
0,8255	-16,5	5,3
0,826	-10,0	6,6
0,8265	-0,9	8,1
0,827	7,3	8,7
0,8275	11,8	7,8
0,828	12,0	5,4
0,8285	9,7	2,5
0,829	7,6	0,3
0,8295	7,0	-1,0
0,83	7,6	-2,1
0,8305	8,3	-3,8
0,831	8,6	-6,2
0,8315	8,4	-8,4
0,832	8,1	-9,3
0,8325	8,0	-8,6
0,833	8,1	-6,6
0,8335	8,5	-4,7
0,834	8,8	-3,8
0,8345	8,9	-4,4
0,835	9,2	-6,2
0,8355	10,3	-8,3
0,836	12,5	-9,8
0,8365	15,2	-10,0
0,837	17,3	-9,3
0,8375	18,3	-8,3
0,838	17,9	-7,3
0,8385	16,9	-6,2
0,839	16,0	-4,5
0,8395	15,5	-2,5
0,84	15,2	-0,4
0,8405	13,9	1,5
0,841	11,2	3,0
0,8415	7,4	4,2
0,842	3,9	5,4
0,8425	1,6	6,8
0,843	0,4	8,5
0,8435	-0,8	10,5
0,844	-3,3	12,6
0,8445	-7,4	14,9
0,845	-12,4	17,4
0,8455	-16,9	19,7
0,846	-20,2	21,7
0,8465	-21,6	23,2
0,847	-20,8	24,4
0,8475	-17,5	25,3
0,848	-12,5	25,7
0,8485	-6,6	25,1
0,849	-0,9	23,5
0,8495	4,1	21,4
0,85	8,0	19,2
0,8505	10,9	17,4
0,851	13,2	16,5
0,8515	15,0	16,5
0,852	16,7	16,8
0,8525	18,3	15,8
0,853	19,0	12,3
0,8535	18,1	5,8
0,854	15,3	-2,2
0,8545	11,2	-9,3
0,855	7,0	-13,4
0,8555	4,6	-14,2
0,856	5,4	-12,9
0,8565	9,2	-11,5
0,857	13,3	-11,3
0,8575	14,9	-12,7
0,858	12,4	-14,6
0,8585	6,6	-15,9
0,859	0,1	-15,8
0,8595	-5,0	-14,4
0,86	-8,0	-12,4
0,8605	-9,6	-10,6
0,861	-10,8	-9,3
0,8615	-11,8	-8,7
0,862	-12,2	-8,3
0,8625	-11,5	-7,7
0,863	-9,2	-6,6
0,8635	-5,1	-5,0
0,864	0,4	-2,9
0,8645	6,6	-0,8
0,865	12,6	1,4
0,8655	17,8	3,5
0,866	21,5	5,3
0,8665	23,7	6,9
0,867	24,6	8,5
0,8675	24,4	9,8
0,868	23,4	10,8
0,8685	22,1	11,3
0,869	20,8	11,1
0,8695	19,8	10,4
0,87	18,6	9,3
0,8705	16,8	8,1
0,871	14,9	7,2
0,8715	13,4	6,7
0,872	12,8	6,5
0,8725	13,0	6,5
0,873	13,0	6,8
0,8735	12,7	7,2
0,874	12,7	7,6
0,8745	13,8	7,6
0,875	15,6	6,8
0,8755	16,9	4,9
0,876	16,4	2,3
0,8765	13,8	-1,0
0,877	9,7	-4,7
0,8775	5,3	-8,1
0,878	1,8	-9,8
0,8785	-0,3	-9,3
0,879	-1,5	-6,9
0,8795	-3,0	-4,1
0,88	-4,8	-1,9
0,8805	-6,3	-0,5
0,881	-6,6	0,5
0,8815	-5,2	1,5
0,882	-2,8	2,2
0,8825	-0,5	2,5
0,883	0,9	2,5
0,8835	1,7	2,4
0,884	3,2	2,7
0,8845	6,5	3,7
0,885	11,8	5,3
0,8855	18,1	7,2
0,886	23,7	9,0
0,8865	27,7	10,5
0,887	29,8	11,5
0,8875	30,0	11,7
0,888	28,9	11,4
0,8885	26,9	10,9
0,889	24,1	10,7
0,8895	21,0	10,7
0,89	17,5	11,0
0,8905	13,9	11,4
0,891	11,2	11,7
0,8915	10,7	11,7
0,892	12,5	11,4
0,8925	14,8	10,9
0,893	15,7	9,9
0,8935	14,6	8,5
0,894	12,0	7,1
0,8945	8,8	5,9
0,895	5,7	4,7
0,8955	3,1	3,6
0,896	1,4	3,0
0,8965	1,0	3,2
0,897	1,8	4,1
0,8975	3,4	5,6
0,898	5,3	7,0
0,8985	7,3	8,2
0,899	9,0	9,2
0,8995	10,9	10,1
0,9	13,1	11,3
0,9005	15,5	12,9
0,901	17,1	14,4
0,9015	17,1	15,6
0,902	15,3	16,0
0,9025	12,2	15,5
0,903	8,5	13,6
0,9035	5,3	10,1
0,904	3,1	4,9
0,9045	2,2	-0,9
0,905	2,5	-5,4
0,9055	3,7	-7,4
0,906	5,2	-6,8
0,9065	6,1	-4,9
0,907	5,7	-3,3
0,9075	3,7	-2,8
0,908	0,1	-3,7
0,9085	-4,3	-5,4
0,909	-8,1	-7,2
0,9095	-10,5	-8,1
0,91	-11,0	-7,5
0,9105	-9,8	-5,0
0,911	-7,1	-1,1
0,9115	-3,6	3,4
0,912	-0,0	7,7
0,9125	3,2	11,0
0,913	6,0	13,2
0,9135	8,5	14,2
0,914	10,7	14,3
0,9145	12,5	13,8
0,915	13,8	13,1
0,9155	14,8	12,4
0,916	15,5	12,0
0,9165	15,3	12,0
0,917	13,7	12,5
0,9175	10,9	13,5
0,918	7,3	15,0
0,9185	3,9	16,9
0,919	1,4	18,4
0,9195	-0,1	18,8
0,92	-1,6	17,4
0,9205	-3,4	15,0
0,921	-5,9	12,4
0,9215	-8,9	10,4
0,922	-12,3	9,5
0,9225	-14,9	9,7
0,923	-15,9	10,7
0,9235	-15,1	11,6
0,924	-13,4	11,7
0,9245	-12,3	10,6
0,925	-12,0	8,8
0,9255	-12,0	7,2
0,926	-11,7	6,4
0,9265	-11,0	6,3
0,927	-9,7	6,1
0,9275	-7,3	5,8
0,928	-3,2	5,7
0,9285	2,7	6,5
0,929	9,5	8,1
0,9295	16,1	10,3
0,93	21,3	12,2
0,9305	23,8	13,0
0,931	23,8	12,5
0,9315	22,7	10,8
0,932	22,1	8,4
0,9325	22,6	5,8
0,933	23,5	3,1
0,9335	23,1	0,2
0,934	20,8	-2,6
0,9345	17,1	-5,0
0,935	13,6	-6,6
0,9355	11,2	-7,6
0,936	10,2	-8,2
0,9365	10,2	-8,5
0,937	10,3	-8,3
0,9375	9,9	-7,7
0,938	8,8	-6,8
0,9385	7,2	-5,6
0,939	6,0	-4,1
0,9395	6,1	-2,1
0,94	7,9	0,5
0,9405	10,6	3,2
0,941	12,8	5,5
0,9415	13,2	6,6
0,942	11,8	6,3
0,9425	10,1	4,8
0,943	8,9	3,4
0,9435	8,3	2,9
0,944	8,1	3,3
0,9445	8,2	4,3
0,945	9,5	6,0
0,9455	12,8	8,6
0,946	17,7	12,1
0,9465	22,1	15,8
0,947	24,0	18,3
0,9475	23,0	19,1
0,948	19,8	18,5
0,9485	15,8	17,2
0,949	11,8	15,6
0,9495	8,1	13,9
0,95	3,8	12,5
0,9505	-2,2	11,3
0,951	-9,9	10,6
0,9515	-18,0	10,3
0,952	-24,2	10,4
0,9525	-27,4	10,6
0,953	-27,9	10,5
0,9535	-26,6	10,1
0,954	-23,8	9,5
0,9545	-19,4	8,9
0,955	-14,0	8,0
0,9555	-8,2	6,8
0,956	-2,6	5,4
0,9565	2,7	4,3
0,957	7,8	4,3
0,9575	12,6	5,2
0,958	17,2	6,7
0,9585	22,6	8,5
0,959	29,6	10,4
0,9595	37,5	12,3
0,96	43,7	13,7
0,9605	45,3	14,3
0,961	42,2	14,5
0,9615	36,4	15,0
0,962	30,1	16,4
0,9625	23,8	18,2
0,963	17,3	19,4
0,9635	11,1	18,9
0,964	5,5	16,4
0,9645	1,3	12,3
0,965	-1,3	8,0
0,9655	-2,5	4,7
0,966	-2,7	2,9
0,9665	-2,5	2,3
0,967	-2,1	2,3
0,9675	-1,6	2,6
0,968	-0,9	3,0
0,9685	0,4	3,7
0,969	2,2	4,6
0,9695	4,2	5,5
0,97	5,8	5,9
0,9705	6,3	5,8
0,971	5,2	5,3
0,9715	3,0	5,1
0,972	1,1	5,3
0,9725	0,0	6,2
0,973	-0,3	7,2
0,9735	-0,8	7,8
0,974	-2,1	7,7
0,9745	-4,1	6,7
0,975	-5,7	5,4
0,9755	-5,6	4,6
0,976	-3,2	4,8
0,9765	0,8	6,0
0,977	5,1	8,0
0,9775	8,6	10,3
0,978	10,9	12,6
0,9785	11,9	14,3
0,979	12,3	15,5
0,9795	13,1	16,3
0,98	14,4	16,5
0,9805	15,8	16,2
0,981	16,3	15,3
0,9815	15,5	14,5
0,982	14,1	14,2
0,9825	13,3	14,4
0,983	14,1	14,7
0,9835	16,4	14,4
0,984	18,6	13,6
0,9845	19,4	12,4
0,985	18,8	11,2
0,9855	18,0	9,8
0,986	18,7	8,6
0,9865	20,9	7,8
0,987	23,3	7,5
0,9875	24,3	7,7
0,988	23,4	8,2
0,9885	21,2	8,8
0,989	18,5	9,5
0,9895	15,9	10,2
0,99	13,2	10,5
0,9905	10,6	10,2
0,991	8,5	9,6
0,9915	7,2	9,0
0,992	6,7	8,8
0,9925	6,3	9,1
0,993	5,2	9,4
0,9935	3,4	9,7
0,994	1,2	9,8
0,9945	-1,1	10,2
0,995	-3,3	10,8
0,9955	-5,4	11,6
0,996	-7,9	12,3
0,9965	-11,5	13,1
0,997	-15,9	14,1
0,9975	-20,3	15,3
0,998	-23,6	16,5
0,9985	-25,5	17,7
0,999	-25,8	18,6
0,9995	-24,6	19,6
1	-22,4	20,8
1,0005	-19,8	22,9
1,001	-17,1	25,6
1,0015	-14,3	28,3
1,002	-11,3	30,2
1,0025	-7,9	30,7
1,003	-4,0	29,9
1,0035	0,2	28,7
1,004	4,3	27,7
1,0045	8,4	27,4
1,005	12,9	27,6
1,0055	18,1	28,0
1,006	23,3	28,3
1,0065	27,6	27,9
1,007	29,3	26,8
1,0075	27,8	24,6
1,008	24,1	21,7
1,0085	20,0	18,9
1,009	16,9	17,2
1,0095	14,4	16,8
1,01	11,6	17,5
1,0105	7,7	18,7
1,011	2,2	19,7
1,0115	-4,7	20,0
1,012	-11,7	19,7
1,0125	-16,9	18,8
1,013	-19,3	17,4
1,0135	-19,4	15,5
1,014	-17,8	13,4
1,0145	-14,3	12,0
1,015	-8,3	12,1
1,0155	-0,6	13,5
1,016	6,3	15,4
1,0165	10,1	17,1
1,017	10,4	18,2
1,0175	8,2	18,9
1,018	5,1	19,3
1,0185	2,2	19,3
1,019	0,2	19,4
1,0195	-0,8	19,7
1,02	-1,4	20,3
1,0205	-1,7	21,0
1,021	-1,3	21,9
1,0215	-0,2	23,0
1,022	1,5	24,3
1,0225	3,8	25,7
1,023	6,7	27,0
1,0235	10,0	28,5
1,024	13,1	30,0
1,0245	14,5	30,9
1,025	13,0	30,4
1,0255	8,1	27,9
1,026	0,5	23,6
1,0265	-7,9	18,6
1,027	-15,2	13,8
1,0275	-20,3	10,3
1,028	-22,8	8,4
1,0285	-22,5	8,1
1,029	-20,0	9,0
1,0295	-16,7	10,2
1,03	-13,9	11,2
1,0305	-12,3	11,4
1,031	-11,6	11,2
1,0315	-11,7	10,6
1,032	-12,2	10,1
1,0325	-12,9	10,2
1,033	-13,3	10,8
1,0335	-13,3	11,7
1,034	-12,7	12,5
1,0345	-11,4	13,1
1,035	-9,3	13,8
1,0355	-6,1	14,7
1,036	-2,4	15,8
1,0365	1,1	16,7
1,037	3,1	17,5
1,0375	3,2	17,8
1,038	1,3	17,8
1,0385	-2,2	17,6
1,039	-6,8	17,4
1,0395	-11,8	17,3
1,04	-16,1	17,4
1,0405	-18,4	18,0
1,041	-18,1	19,3
1,0415	-15,8	21,1
1,042	-12,8	23,1
1,0425	-9,9	25,1
1,043	-7,1	26,9
1,0435	-4,0	28,6
1,044	-0,5	30,2
1,0445	2,7	31,7
1,045	5,1	33,0
1,0455	6,3	34,1
1,046	6,5	35,0
1,0465	6,0	35,6
1,047	5,0	35,9
1,0475	4,0	36,0
1,048	3,8	36,1
1,0485	4,1	36,1
1,049	4,3	35,9
1,0495	3,4	35,6
1,05	1,3	35,1
1,0505	-1,8	34,6
1,051	-5,3	33,9
1,0515	-8,7	33,1
1,052	-11,2	32,2
1,0525	-12,1	31,4
1,053	-11,3	30,7
1,0535	-9,3	30,0
1,054	-6,9	29,3
1,0545	-4,4	28,1
1,055	-1,3	26,3
1,0555	3,2	24,3
1,056	8,8	22,0
1,0565	13,9	19,7
1,057	17,3	17,1
1,0575	19,5	14,4
1,058	20,9	11,8
1,0585	21,4	9,7
1,059	20,5	8,1
1,0595	18,1	7,3
1,06	15,0	7,2
1,0605	12,2	8,2
1,061	10,1	10,1
1,0615	8,6	12,7
1,062	7,2	15,5
1,0625	5,6	18,1
1,063	3,2	20,2
1,0635	-0,4	21,6
1,064	-4,5	22,4
1,0645	-8,2	23,0
1,065	-10,2	23,2
1,0655	-9,7	23,1
1,066	-7,1	22,8
1,0665	-3,1	22,6
1,067	1,0	22,3
1,0675	4,1	21,8
1,068	6,0	21,3
1,0685	7,1	21,1
1,069	8,0	21,7
1,0695	9,3	23,1
1,07	11,1	25,1
1,0705	13,1	27,3
1,071	14,3	30,0
1,0715	13,8	33,0
1,072	11,1	36,5
1,0725	7,3	40,1
1,073	3,8	43,4
1,0735	2,0	46,2
1,074	1,8	47,6
1,0745	2,5	47,0
1,075	3,1	44,4
1,0755	3,2	40,4
1,076	3,2	35,8
1,0765	3,8	31,4
1,077	5,4	28,1
1,0775	7,6	26,1
1,078	9,4	24,8
1,0785	9,9	23,5
1,079	9,0	21,6
1,0795	7,3	18,7
1,08	5,7	15,2
1,0805	5,2	11,7
1,081	6,3	9,5
1,0815	9,0	9,2
1,082	12,5	10,9
1,0825	15,8	14,2
1,083	18,6	17,7
1,0835	20,7	19,9
1,084	22,0	20,3
1,0845	21,6	18,9
1,085	19,5	16,7
1,0855	16,3	14,4
1,086	12,9	12,7
1,0865	9,6	11,6
1,087	6,2	10,8
1,0875	2,7	10,4
1,088	-0,5	10,3
1,0885	-3,1	10,6
1,089	-4,9	11,6
1,0895	-6,6	13,1
1,09	-8,2	14,9
1,0905	-9,1	16,6
1,091	-8,6	18,1
1,0915	-6,7	19,4
1,092	-3,7	20,8
1,0925	-0,1	22,2
1,093	3,7	23,6
1,0935	7,2	24,7
1,094	10,2	25,4
1,0945	12,4	25,6
1,095	14,3	25,5
1,0955	16,3	25,7
1,096	18,7	26,4
1,0965	21,3	28,0
1,097	23,9	30,1
1,0975	25,8	32,4
1,098	26,9	34,3
1,0985	27,3	35,4
1,099	27,3	35,2
1,0995	27,1	33,8
1,1	26,7	31,8
1,1005	26,3	29,6
1,101	25,7	27,9
1,1015	24,2	26,4
1,102	21,5	24,6
1,1025	17,9	22,2
1,103	14,6	19,6
1,1035	12,4	17,5
1,104	11,5	16,2
1,1045	11,8	15,7
1,105	12,3	15,8
1,1055	12,5	16,5
1,106	12,0	17,2
1,1065	10,7	17,4
1,107	8,8	16,5
1,1075	6,5	14,8
1,108	4,4	12,7
1,1085	3,4	11,3
1,109	4,5	10,9
1,1095	7,8	11,8
1,11	12,2	13,3
1,1105	16,1	15,3
1,111	17,8	17,3
1,1115	17,2	19,3
1,112	15,0	21,1
1,1125	12,5	22,6
1,113	10,6	23,6
1,1135	9,8	24,0
1,114	9,8	23,5
1,1145	10,0	22,0
1,115	10,1	19,7
1,1155	10,0	17,3
1,116	9,4	15,6
1,1165	8,6	15,4
1,117	7,9	16,6
1,1175	7,2	18,6
1,118	6,2	20,3
1,1185	5,3	21,1
1,119	5,0	20,9
1,1195	6,2	20,1
1,12	9,4	19,1
1,1205	14,3	18,3
1,121	19,8	18,1
1,1215	24,7	19,0
1,122	27,8	20,6
1,1225	28,0	22,4
1,123	25,2	23,4
1,1235	20,4	23,4
1,124	15,6	22,7
1,1245	12,3	21,7
1,125	11,6	20,8
1,1255	13,2	20,1
1,126	15,5	19,6
1,1265	17,2	19,3
1,127	17,8	19,3
1,1275	17,6	19,8
1,128	17,3	20,6
1,1285	16,9	21,4
1,129	16,1	22,3
1,1295	14,6	22,9
1,13	12,4	23,1
1,1305	9,4	22,6
1,131	5,6	21,3
1,1315	1,5	19,8
1,132	-1,3	18,7
1,1325	-1,7	18,4
1,133	-0,1	18,5
1,1335	2,2	18,3
1,134	3,9	17,5
1,1345	4,8	16,2
1,135	5,5	14,6
1,1355	6,9	12,9
1,136	9,6	11,3
1,1365	13,4	10,0
1,137	17,4	9,3
1,1375	20,5	9,3
1,138	21,8	10,0
1,1385	22,0	11,6
1,139	21,7	13,5
1,1395	21,8	15,2
1,14	22,7	16,1
1,1405	24,2	16,3
1,141	25,8	16,3
1,1415	27,0	16,6
1,142	27,3	17,7
1,1425	26,8	19,4
1,143	25,9	21,3
1,1435	25,3	22,7
1,144	25,3	22,8
1,1445	25,3	21,4
1,145	24,9	19,0
1,1455	23,8	16,5
1,146	22,5	14,8
1,1465	21,5	14,3
1,147	20,2	14,1
1,1475	17,3	13,8
1,148	11,9	13,2
1,1485	4,4	12,4
1,149	-3,4	11,8
1,1495	-9,7	11,6
1,15	-13,7	11,9
1,1505	-16,1	12,9
1,151	-18,8	14,0
1,1515	-22,1	14,9
1,152	-25,4	15,0
1,1525	-26,9	14,6
1,153	-25,7	14,1
1,1535	-21,9	14,0
1,154	-16,3	14,6
1,1545	-9,9	15,7
1,155	-3,5	17,4
1,1555	2,9	19,4
1,156	9,3	21,6
1,1565	16,1	24,0
1,157	23,3	26,8
1,1575	29,8	29,7
1,158	33,9	31,8
1,1585	35,0	32,7
1,159	33,9	32,4
1,1595	32,8	31,7
1,16	32,6	30,6
1,1605	33,5	29,0
1,161	35,4	26,8
1,1615	38,5	24,6
1,162	42,8	22,8
1,1625	47,3	21,6
1,163	49,8	20,0
1,1635	49,0	17,3
1,164	45,0	13,5
1,1645	39,1	9,2
1,165	32,8	4,9
1,1655	27,1	1,0
1,166	22,6	-2,4
1,1665	19,3	-4,8
1,167	17,3	-5,7
1,1675	16,1	-5,1
1,168	15,5	-3,2
1,1685	15,1	-0,3
1,169	14,6	3,0
1,1695	13,7	5,9
1,17	12,1	7,8
1,1705	9,7	8,3
1,171	6,8	7,6
1,1715	4,0	6,2
1,172	1,8	4,9
1,1725	0,1	4,4
1,173	-0,9	4,8
1,1735	-1,0	6,0
1,174	-0,3	7,6
1,1745	0,9	9,2
1,175	2,3	10,5
1,1755	3,7	11,4
1,176	4,8	12,1
1,1765	6,0	12,7
1,177	7,1	13,4
1,1775	7,8	14,5
1,178	7,8	15,9
1,1785	7,3	17,3
1,179	7,5	18,8
1,1795	9,8	20,4
1,18	13,9	22,0
1,1805	18,3	23,0
1,181	20,7	22,9
1,1815	20,2	21,7
1,182	17,7	20,2
1,1825	14,9	19,0
1,183	13,6	18,6
1,1835	14,2	18,8
1,184	16,0	19,7
1,1845	18,3	21,1
1,185	20,3	22,8
1,1855	22,0	24,7
1,186	23,2	26,1
1,1865	23,3	26,7
1,187	21,8	26,0
1,1875	19,0	24,3
1,188	15,8	22,3
1,1885	13,3	20,7
1,189	11,3	19,8
1,1895	9,7	19,2
1,19	7,8	18,3
1,1905	5,4	17,0
1,191	2,1	15,2
1,1915	-2,3	12,8
1,192	-8,0	10,1
1,1925	-13,8	7,1
1,193	-18,0	4,2
1,1935	-19,0	1,9
1,194	-16,7	0,7
1,1945	-12,3	0,8
1,195	-7,7	2,3
1,1955	-4,1	4,5
1,196	-1,8	7,1
1,1965	-0,8	9,8
1,197	-0,3	12,4
1,1975	0,3	14,7
1,198	1,2	16,5
1,1985	2,2	17,9
1,199	3,3	18,9
1,1995	4,3	19,6
1,2	4,8	20,3
1,2005	4,5	20,9
1,201	4,2	21,4
1,2015	5,1	21,8
1,202	8,1	22,0
1,2025	12,6	22,0
1,203	17,1	21,9
1,2035	20,9	21,9
1,204	24,5	21,8
1,2045	27,9	21,8
1,205	30,8	22,0
1,2055	32,7	22,8
1,206	33,7	24,0
1,2065	34,8	24,9
1,207	36,7	25,4
1,2075	39,2	25,6
1,208	41,6	25,6
1,2085	43,1	25,4
1,209	44,0	25,0
1,2095	43,9	24,0
1,21	42,2	22,3
1,2105	38,6	20,1
1,211	33,8	18,2
1,2115	29,0	17,4
1,212	25,0	18,2
1,2125	21,9	20,1
1,213	19,6	22,2
1,2135	17,6	23,2
1,214	15,3	22,8
1,2145	12,5	20,9
1,215	9,0	18,1
1,2155	4,8	14,7
1,216	0,7	11,4
1,2165	-2,8	8,8
1,217	-5,3	7,3
1,2175	-7,0	6,7
1,218	-8,7	6,7
1,2185	-11,3	7,2
1,219	-15,7	7,8
1,2195	-22,0	8,6
1,22	-29,4	9,7
1,2205	-37,0	11,0
1,221	-43,6	12,1
1,2215	-48,3	13,0
1,222	-50,1	13,7
1,2225	-48,5	14,4
1,223	-44,1	15,3
1,2235	-38,0	16,5
1,224	-30,9	18,1
1,2245	-22,8	20,5
1,225	-13,3	23,7
1,2255	-3,0	27,2
1,226	7,3	30,7
1,2265	16,4	33,9
1,227	23,6	36,7
1,2275	28,7	39,0
1,228	32,2	41,0
1,2285	35,1	42,8
1,229	37,8	44,3
1,2295	39,4	45,1
1,23	38,8	44,7
1,2305	35,5	42,7
1,231	30,3	39,9
1,2315	24,9	36,7
1,232	20,5	33,5
1,2325	17,5	29,9
1,233	15,8	26,0
1,2335	14,9	22,0
1,234	14,2	18,0
1,2345	13,9	14,1
1,235	13,5	10,0
1,2355	12,4	5,5
1,236	9,4	1,0
1,2365	5,0	-2,6
1,237	1,1	-4,7
1,2375	-0,8	-4,9
1,238	0,1	-3,6
1,2385	2,8	-1,3
1,239	6,5	1,5
1,2395	10,2	4,8
1,24	13,2	8,2
1,2405	15,0	11,3
1,241	15,6	13,9
1,2415	15,0	15,9
1,242	13,6	17,5
1,2425	11,8	18,8
1,243	9,8	20,0
1,2435	7,9	21,1
1,244	5,9	22,2
1,2445	3,9	23,2
1,245	1,8	24,1
1,2455	-0,4	24,7
1,246	-2,8	24,9
1,2465	-4,9	25,0
1,247	-6,3	25,0
1,2475	-6,6	25,2
1,248	-6,1	25,3
1,2485	-5,3	25,0
1,249	-4,6	24,0
1,2495	-4,1	22,3
1,25	-3,7	20,3
1,2505	-3,4	18,6
1,251	-2,6	17,6
1,2515	-1,1	17,6
1,252	0,8	18,3
1,2525	2,8	19,0
1,253	4,4	19,3
1,2535	5,7	19,3
1,254	6,6	19,3
1,2545	6,8	19,6
1,255	6,4	20,2
1,2555	6,0	21,1
1,256	6,6	22,1
1,2565	8,5	22,9
1,257	11,5	23,0
1,2575	15,0	22,6
1,258	18,0	21,8
1,2585	19,8	21,1
1,259	20,2	21,0
1,2595	19,7	21,6
1,26	18,8	22,6
1,2605	17,5	23,9
1,261	16,1	25,0
1,2615	14,8	26,0
1,262	14,2	27,2
1,2625	14,2	28,4
1,263	14,5	29,4
1,2635	14,8	29,6
1,264	15,0	28,6
1,2645	14,9	26,8
1,265	14,8	24,6
1,2655	14,8	22,6
1,266	14,6	21,0
1,2665	14,1	19,9
1,267	13,3	19,5
1,2675	12,4	19,8
1,268	12,0	20,5
1,2685	12,1	21,1
1,269	12,4	21,2
1,2695	12,1	20,5
1,27	10,8	19,2
1,2705	8,3	17,3
1,271	5,1	15,7
1,2715	1,9	14,3
1,272	-1,2	13,5
1,2725	-4,3	12,8
1,273	-7,7	12,0
1,2735	-11,3	11,4
1,274	-14,6	11,0
1,2745	-16,8	10,9
1,275	-17,2	11,3
1,2755	-16,0	12,0
1,276	-13,7	12,7
1,2765	-11,4	13,4
1,277	-9,8	14,3
1,2775	-9,0	15,7
1,278	-9,0	17,8
1,2785	-9,2	20,0
1,279	-9,7	21,8
1,2795	-10,4	22,4
1,28	-11,4	21,9
1,2805	-12,2	20,6
1,281	-12,2	19,3
1,2815	-10,8	18,7
1,282	-8,1	18,8
1,2825	-4,8	19,2
1,283	-1,6	19,8
1,2835	1,6	20,5
1,284	4,6	21,5
1,2845	6,9	22,6
1,285	8,1	23,6
1,2855	8,0	24,4
1,286	6,8	24,8
1,2865	4,9	24,7
1,287	3,0	24,3
1,2875	1,0	24,1
1,288	-1,0	24,4
1,2885	-3,0	25,3
1,289	-4,5	26,6
1,2895	-4,6	27,8
1,29	-2,9	28,5
1,2905	0,3	28,3
1,291	4,0	27,4
1,2915	7,8	26,1
1,292	11,3	24,5
1,2925	13,5	22,2
1,293	13,1	18,8
1,2935	9,7	15,2
1,294	4,0	12,2
1,2945	-2,1	10,6
1,295	-7,1	10,8
1,2955	-9,3	12,7
1,296	-7,8	15,7
1,2965	-2,9	18,9
1,297	2,5	21,3
1,2975	4,8	21,8
1,298	1,6	20,7
1,2985	-5,2	18,8
1,299	-11,1	17,5
1,2995	-11,8	18,0
1,3	-6,6	20,0
1,3005	1,4	22,5
1,301	8,7	24,1
1,3015	13,2	23,9
1,302	15,5	22,1
1,3025	17,0	20,0
1,303	18,3	18,6
1,3035	19,6	17,9
1,304	20,3	17,5
1,3045	19,1	16,8
1,305	15,6	15,9
1,3055	11,2	14,7
1,306	8,3	13,2
1,3065	8,1	11,2
1,307	9,8	8,7
1,3075	11,6	5,9
1,308	12,8	3,6
1,3085	13,5	2,7
1,309	14,6	3,2
1,3095	16,9	4,3
1,31	20,9	5,6
1,3105	25,3	6,5
1,311	28,4	7,3
1,3115	29,0	8,3
1,312	27,1	9,8
1,3125	23,5	11,6
1,313	19,1	13,0
1,3135	14,5	13,5
1,314	10,4	13,0
1,3145	7,4	12,1
1,315	5,4	11,5
1,3155	4,1	11,7
1,316	3,3	12,7
1,3165	2,4	14,1
1,317	0,1	15,1
1,3175	-5,0	14,9
1,318	-12,8	13,4
1,3185	-21,8	11,0
1,319	-29,8	8,4
1,3195	-34,9	6,5
1,32	-36,3	5,6
1,3205	-34,3	5,8
1,321	-29,8	6,7
1,3215	-23,7	7,6
1,322	-17,2	8,4
1,3225	-11,4	9,3
1,323	-7,2	10,4
1,3235	-4,3	11,6
1,324	-2,0	13,0
1,3245	0,5	14,4
1,325	3,2	15,8
1,3255	6,2	17,4
1,326	9,0	18,9
1,3265	10,9	20,5
1,327	11,6	22,1
1,3275	10,9	23,8
1,328	9,1	25,5
1,3285	6,6	27,2
1,329	3,4	28,4
1,3295	-0,4	28,8
1,33	-4,1	27,9
1,3305	-6,8	25,4
1,331	-7,2	21,7
1,3315	-5,0	17,7
1,332	-0,9	14,4
1,3325	3,7	12,3
1,333	8,0	11,8
1,3335	12,1	12,2
1,334	16,1	13,3
1,3345	20,2	14,7
1,335	23,7	15,8
1,3355	25,9	16,3
1,336	26,8	15,9
1,3365	26,3	14,9
1,337	25,1	14,2
1,3375	23,4	14,1
1,338	21,4	14,4
1,3385	19,5	14,8
1,339	18,8	15,0
1,3395	19,9	15,2
1,34	22,6	15,5
1,3405	25,5	16,2
1,341	26,9	16,9
1,3415	25,8	16,8
1,342	22,9	15,8
1,3425	19,5	14,4
1,343	17,2	13,8
1,3435	16,8	14,4
1,344	18,0	16,3
1,3445	20,0	19,0
1,345	22,1	22,1
1,3455	23,8	24,9
1,346	24,7	27,2
1,3465	25,1	28,8
1,347	25,2	29,5
1,3475	25,4	29,7
1,348	26,0	29,8
1,3485	27,0	29,8
1,349	27,8	29,6
1,3495	27,4	28,7
1,35	25,4	26,6
1,3505	21,9	22,7
1,351	17,3	17,0
1,3515	12,8	10,8
1,352	9,2	5,7
1,3525	7,1	2,7
1,353	6,3	2,0
1,3535	6,2	3,1
1,354	5,6	5,5
1,3545	4,1	8,7
1,355	1,3	12,1
1,3555	-2,4	14,8
1,356	-5,9	16,7
1,3565	-8,5	17,8
1,357	-9,5	18,4
1,3575	-8,6	18,7
1,358	-6,0	18,9
1,3585	-2,6	19,3
1,359	1,1	20,2
1,3595	5,0	21,7
1,36	8,5	23,5
1,3605	11,3	25,2
1,361	12,9	26,2
1,3615	14,0	26,3
1,362	15,9	25,9
1,3625	19,2	25,2
1,363	23,7	24,5
1,3635	28,1	23,8
1,364	31,2	22,8
1,3645	32,1	21,7
1,365	30,8	20,2
1,3655	27,5	18,5
1,366	23,1	16,6
1,3665	18,9	14,6
1,367	16,3	12,8
1,3675	15,3	11,2
1,368	15,3	10,0
1,3685	15,2	9,1
1,369	14,3	8,4
1,3695	12,7	8,0
1,37	10,6	7,8
1,3705	8,6	7,9
1,371	7,0	7,8
1,3715	5,8	7,6
1,372	4,3	7,0
1,3725	2,5	6,3
1,373	0,9	5,8
1,3735	0,3	6,2
1,374	0,9	7,8
1,3745	2,8	9,8
1,375	6,1	11,6
1,3755	10,6	13,0
1,376	15,8	13,9
1,3765	20,8	14,6
1,377	24,7	15,3
1,3775	27,5	16,5
1,378	29,5	18,0
1,3785	31,2	19,9
1,379	32,5	21,6
1,3795	33,3	22,8
1,38	33,6	23,6
1,3805	33,8	23,8
1,381	34,2	23,6
1,3815	34,5	23,1
1,382	34,4	22,6
1,3825	33,4	22,2
1,383	31,6	21,9
1,3835	29,3	21,2
1,384	26,5	19,9
1,3845	23,2	17,8
1,385	19,2	15,4
1,3855	14,3	13,1
1,386	8,6	11,0
1,3865	2,5	8,9
1,387	-3,7	6,8
1,3875	-9,4	4,5
1,388	-14,4	2,1
1,3885	-18,1	-0,3
1,389	-19,6	-1,9
1,3895	-17,9	-1,8
1,39	-13,4	0,0
1,3905	-7,5	2,6
1,391	-2,1	4,8
1,3915	1,5	5,9
1,392	2,9	6,3
1,3925	2,5	6,6
1,393	0,9	7,4
1,3935	-0,9	9,0
1,394	-2,7	11,3
1,3945	-4,4	13,8
1,395	-6,3	16,1
1,3955	-7,8	17,8
1,396	-8,3	19,0
1,3965	-7,4	19,5
1,397	-5,7	19,3
1,3975	-4,0	18,7
1,398	-2,9	17,8
1,3985	-2,4	17,2
1,399	-2,0	17,2
1,3995	-1,3	18,0
1,4	-0,3	19,6
1,4005	0,9	21,5
1,401	2,9	23,3
1,4015	6,4	24,8
1,402	12,0	26,1
1,4025	18,6	26,7
1,403	23,6	26,3
1,4035	24,3	24,6
1,404	20,6	21,8
1,4045	14,3	18,8
1,405	7,6	16,2
1,4055	1,8	14,3
1,406	-3,6	12,9
1,4065	-9,4	12,1
1,407	-15,8	11,7
1,4075	-22,2	11,6
1,408	-27,2	11,9
1,4085	-29,8	12,7
1,409	-30,1	13,9
1,4095	-28,4	15,5
1,41	-25,3	17,5
1,4105	-21,3	19,9
1,411	-17,0	22,6
1,4115	-12,6	25,7
1,412	-7,6	28,8
1,4125	-1,4	31,8
1,413	5,9	34,6
1,4135	13,3	36,6
1,414	18,8	37,5
1,4145	21,1	37,0
1,415	20,5	35,1
1,4155	18,2	31,6
1,416	15,4	26,8
1,4165	12,9	21,3
1,417	10,8	16,3
1,4175	9,2	12,6
1,418	8,8	10,7
1,4185	9,8	10,3
1,419	11,2	10,8
1,4195	11,9	11,3
1,42	10,8	11,2
1,4205	7,9	10,1
1,421	3,6	8,1
1,4215	-1,0	6,2
1,422	-4,4	5,3
1,4225	-5,3	5,8
1,423	-2,9	8,0
1,4235	2,3	11,3
1,424	8,5	14,8
1,4245	13,9	17,8
1,425	16,8	19,4
1,4255	17,1	19,8
1,426	15,8	19,4
1,4265	14,3	18,9
1,427	13,5	18,9
1,4275	13,3	19,4
1,428	13,7	20,3
1,4285	14,3	21,0
1,429	15,2	21,5
1,4295	16,0	21,9
1,43	16,3	22,2
1,4305	14,8	21,4
1,431	11,0	18,9
1,4315	5,5	14,4
1,432	-0,2	9,0
1,4325	-4,8	4,2
1,433	-8,2	1,2
1,4335	-11,0	0,2
1,434	-13,7	0,7
1,4345	-16,1	2,1
1,435	-17,4	4,0
1,4355	-17,3	5,8
1,436	-15,6	7,2
1,4365	-12,8	8,2
1,437	-9,6	8,6
1,4375	-6,9	8,6
1,438	-4,6	8,4
1,4385	-2,3	8,6
1,439	0,2	9,5
1,4395	2,8	11,1
1,44	5,2	13,2
1,4405	7,1	15,6
1,441	8,7	17,8
1,4415	9,9	19,7
1,442	10,8	21,2
1,4425	11,5	22,3
1,443	12,3	23,1
1,4435	12,9	23,8
1,444	12,5	24,6
1,4445	9,9	25,1
1,445	4,9	24,6
1,4455	-1,4	22,4
1,446	-7,8	19,3
1,4465	-12,8	16,1
1,447	-15,1	14,2
1,4475	-14,4	14,2
1,448	-11,1	15,9
1,4485	-6,1	18,8
1,449	-1,1	21,9
1,4495	2,7	24,3
1,45	4,9	25,3
1,4505	6,7	25,3
1,451	9,4	24,9
1,4515	13,3	24,2
1,452	17,5	23,0
1,4525	21,2	20,8
1,453	23,6	17,8
1,4535	24,5	14,6
1,454	24,0	12,1
1,4545	22,3	10,8
1,455	19,2	10,4
1,4555	15,2	10,7
1,456	11,3	11,3
1,4565	8,5	11,9
1,457	7,4	12,7
1,4575	8,1	13,8
1,458	10,2	15,2
1,4585	12,9	16,3
1,459	14,8	16,8
1,4595	14,7	16,4
1,46	12,2	15,0
1,4605	8,0	13,1
1,461	2,9	11,0
1,4615	-2,4	9,5
1,462	-7,0	8,8
1,4625	-10,3	9,0
1,463	-11,8	10,2
1,4635	-11,1	11,9
1,464	-8,7	14,1
1,4645	-4,8	16,3
1,465	-0,6	18,5
1,4655	3,4	20,4
1,466	7,0	22,1
1,4665	10,2	23,5
1,467	12,6	24,8
1,4675	14,2	25,7
1,468	14,7	25,9
1,4685	14,3	25,5
1,469	13,4	24,5
1,4695	11,8	23,1
1,47	9,2	21,4
1,4705	5,7	19,7
1,471	1,9	18,3
1,4715	-1,6	17,1
1,472	-4,5	16,1
1,4725	-6,7	14,7
1,473	-7,9	12,8
1,4735	-7,8	10,5
1,474	-6,7	8,3
1,4745	-6,0	7,0
1,475	-6,7	6,8
1,4755	-8,4	7,4
1,476	-9,5	8,4
1,4765	-8,6	9,2
1,477	-5,6	9,8
1,4775	-0,5	10,3
1,478	6,6	11,2
1,4785	15,0	12,7
1,479	23,2	14,8
1,4795	29,3	17,3
1,48	31,9	19,8
1,4805	30,8	22,0
1,481	26,9	23,6
1,4815	21,9	24,3
1,482	17,6	24,1
1,4825	14,8	23,5
1,483	13,3	22,8
1,4835	11,8	22,3
1,484	9,3	22,2
1,4845	4,9	22,2
1,485	-0,9	22,0
1,4855	-6,8	21,4
1,486	-10,8	20,3
1,4865	-11,8	19,3
1,487	-9,8	18,6
1,4875	-6,2	18,3
1,488	-2,9	18,0
1,4885	-1,6	17,4
1,489	-2,8	16,5
1,4895	-5,8	15,5
1,49	-9,2	14,8
1,4905	-11,7	14,7
1,491	-12,3	15,3
1,4915	-11,1	16,2
1,492	-9,0	16,9
1,4925	-7,4	17,3
1,493	-7,2	17,3
1,4935	-8,4	16,7
1,494	-10,4	15,3
1,4945	-12,1	13,6
1,495	-12,5	12,2
1,4955	-11,2	11,9
1,496	-8,9	12,9
1,4965	-6,6	14,5
1,497	-4,7	16,0
1,4975	-2,9	16,8
1,498	-0,3	16,9
1,4985	3,3	16,5
1,499	7,3	15,6
1,4995	9,9	14,3
1,5	10,0	12,9
1,5005	7,5	12,0
1,501	3,5	12,1
1,5015	-0,6	13,1
1,502	-3,8	14,5
1,5025	-6,1	15,4
1,503	-8,1	15,4
1,5035	-10,2	14,7
1,504	-12,7	13,9
1,5045	-15,4	13,7
1,505	-18,2	14,3
1,5055	-20,9	15,8
1,506	-22,9	18,0
1,5065	-23,7	20,7
1,507	-23,0	23,7
1,5075	-21,0	26,5
1,508	-18,3	28,8
1,5085	-15,2	30,4
1,509	-12,0	31,4
1,5095	-9,2	31,6
1,51	-7,6	30,8
1,5105	-7,0	29,7
1,511	-6,3	29,0
1,5115	-4,4	29,4
1,512	-1,0	30,8
1,5125	3,3	32,9
1,513	8,1	35,1
1,5135	13,1	36,6
1,514	17,9	37,0
1,5145	21,2	36,1
1,515	22,2	33,8
1,5155	20,5	30,6
1,516	16,9	27,5
1,5165	12,6	25,4
1,517	9,3	24,5
1,5175	8,6	24,3
1,518	11,1	23,9
1,5185	15,8	22,9
1,519	20,2	21,2
1,5195	22,2	19,0
1,52	21,2	16,8
1,5205	18,0	15,2
1,521	13,7	14,8
1,5215	9,5	15,8
1,522	6,6	17,6
1,5225	5,8	19,1
1,523	6,7	19,3
1,5235	7,6	17,8
1,524	7,2	14,9
1,5245	5,9	11,9
1,525	4,8	10,0
1,5255	4,6	9,3
1,526	4,9	9,3
1,5265	5,1	9,5
1,527	4,8	9,8
1,5275	4,2	10,6
1,528	3,8	11,9
1,5285	4,0	13,5
1,529	4,5	14,8
1,5295	4,3	15,8
1,53	3,0	16,3
1,5305	0,8	16,5
1,531	-1,3	16,7
1,5315	-2,7	17,0
1,532	-3,7	17,3
1,5325	-4,2	17,5
1,533	-4,4	18,0
1,5335	-4,6	18,8
1,534	-5,4	20,0
1,5345	-7,7	21,4
1,535	-11,1	22,9
1,5355	-14,9	24,4
1,536	-17,8	25,8
1,5365	-19,5	26,7
1,537	-19,9	26,9
1,5375	-19,5	26,5
1,538	-18,3	26,0
1,5385	-15,8	25,9
1,539	-11,8	26,3
1,5395	-6,4	27,2
1,54	-1,4	28,0
1,5405	1,3	28,5
1,541	1,1	28,2
1,5415	-1,2	27,2
1,542	-4,2	25,3
1,5425	-7,0	22,6
1,543	-9,0	20,0
1,5435	-10,0	18,6
1,544	-10,0	19,1
1,5445	-9,5	21,2
1,545	-8,8	23,6
1,5455	-8,3	25,4
1,546	-8,0	26,4
1,5465	-7,9	26,4
1,547	-8,0	25,4
1,5475	-8,5	23,6
1,548	-9,0	21,6
1,5485	-9,1	19,9
1,549	-9,1	18,8
1,5495	-9,4	18,4
1,55	-9,8	18,7
1,5505	-9,5	19,8
1,551	-7,9	21,6
1,5515	-4,9	23,6
1,552	-0,6	25,2
1,5525	5,4	25,9
1,553	12,7	25,8
1,5535	19,4	25,2
1,554	23,4	23,8
1,5545	23,3	21,6
1,555	19,8	18,9
1,5555	14,3	16,4
1,556	8,7	14,8
1,5565	4,1	14,4
1,557	0,9	15,3
1,5575	-0,5	17,3
1,558	-0,4	20,0
1,5585	0,9	23,2
1,559	3,0	26,4
1,5595	5,2	29,4
1,56	6,0	31,4
1,5605	4,3	31,8
1,561	-0,2	30,5
1,5615	-6,5	28,0
1,562	-13,3	25,1
1,5625	-19,1	22,6
1,563	-22,5	21,0
1,5635	-23,0	20,6
1,564	-20,6	21,3
1,5645	-16,3	22,8
1,565	-11,5	24,6
1,5655	-7,8	26,4
1,566	-6,1	27,8
1,5665	-6,7	28,8
1,567	-9,1	29,7
1,5675	-12,7	30,3
1,568	-16,8	30,6
1,5685	-20,9	30,0
1,569	-24,9	28,6
1,5695	-28,2	26,8
1,57	-30,5	25,2
1,5705	-31,3	24,2
1,571	-30,8	23,9
1,5715	-29,1	24,3
1,572	-26,5	25,0
1,5725	-23,0	25,9
1,573	-19,2	26,8
1,5735	-16,0	27,5
1,574	-14,3	27,8
1,5745	-13,8	28,0
1,575	-13,3	28,1
1,5755	-12,1	28,1
1,576	-9,6	28,0
1,5765	-6,1	27,8
1,577	-2,4	27,5
1,5775	0,7	27,3
1,578	2,4	27,2
1,5785	2,4	27,3
1,579	0,9	27,5
1,5795	-1,5	27,5
1,58	-3,8	27,0
1,5805	-5,0	26,0
1,581	-5,4	24,9
1,5815	-5,6	23,9
1,582	-6,3	23,3
1,5825	-8,2	22,9
1,583	-10,8	22,9
1,5835	-13,2	23,7
1,584	-13,8	25,5
1,5845	-12,0	28,3
1,585	-8,0	31,1
1,5855	-2,1	33,0
1,586	5,0	33,4
1,5865	11,8	32,7
1,587	16,0	31,4
1,5875	16,0	29,9
1,588	11,7	28,3
1,5885	5,0	26,7
1,589	-1,3	25,3
1,5895	-5,3	24,8
1,59	-6,8	25,1
1,5905	-6,9	26,0
1,591	-6,6	26,8
1,5915	-6,5	27,4
1,592	-6,4	28,0
1,5925	-5,7	28,4
1,593	-4,7	28,2
1,5935	-4,6	26,3
1,594	-7,0	22,9
1,5945	-11,4	19,0
1,595	-16,3	15,8
1,5955	-19,7	14,3
1,596	-21,0	14,3
1,5965	-20,1	15,4
1,597	-17,4	17,6
1,5975	-14,0	20,4
1,598	-10,8	23,3
1,5985	-8,9	25,5
1,599	-8,9	26,8
1,5995	-10,4	27,1
1,6	-12,2	26,5
1,6005	-12,7	25,3
1,601	-11,4	23,6
1,6015	-8,3	21,6
1,602	-4,0	19,7
1,6025	0,5	18,0
1,603	3,8	16,3
1,6035	4,8	14,5
1,604	3,5	12,9
1,6045	0,6	11,7
1,605	-2,7	11,3
1,6055	-6,1	11,7
1,606	-9,1	13,1
1,6065	-11,3	15,3
1,607	-12,1	17,7
1,6075	-11,3	19,8
1,608	-9,4	21,3
1,6085	-7,2	22,2
1,609	-5,5	22,8
1,6095	-4,7	23,3
1,61	-4,5	24,3
1,6105	-4,8	26,0
1,611	-5,3	27,9
1,6115	-5,9	30,0
1,612	-6,1	32,2
1,6125	-6,2	34,6
1,613	-6,5	36,8
1,6135	-7,5	38,1
1,614	-9,3	37,8
1,6145	-11,3	36,2
1,615	-12,9	33,8
1,6155	-14,1	31,6
1,616	-14,7	30,2
1,6165	-14,6	29,9
1,617	-14,1	30,3
1,6175	-13,9	30,7
1,618	-14,5	30,3
1,6185	-16,0	28,8
1,619	-17,6	26,0
1,6195	-18,8	22,7
1,62	-19,2	20,0
1,6205	-19,2	18,3
1,621	-19,1	17,4
1,6215	-19,5	17,0
1,622	-20,9	17,2
1,6225	-23,1	17,8
1,623	-25,7	18,8
1,6235	-28,1	19,9
1,624	-30,1	21,1
1,6245	-31,1	22,5
1,625	-31,0	24,0
1,6255	-29,5	25,7
1,626	-26,6	27,7
1,6265	-22,9	29,9
1,627	-18,9	32,1
1,6275	-15,5	33,9
1,628	-12,7	35,1
1,6285	-10,7	35,4
1,629	-9,2	35,3
1,6295	-8,3	35,0
1,63	-8,3	34,7
1,6305	-9,3	34,3
1,631	-11,0	33,7
1,6315	-13,3	33,2
1,632	-16,0	32,9
1,6325	-19,0	32,7
1,633	-21,3	32,0
1,6335	-21,4	30,5
1,634	-19,2	28,5
1,6345	-15,9	26,3
1,635	-14,0	24,2
1,6355	-14,5	22,5
1,636	-17,1	21,0
1,6365	-20,6	19,5
1,637	-24,0	17,5
1,6375	-26,2	15,2
1,638	-26,5	13,1
1,6385	-24,8	11,8
1,639	-22,7	11,4
1,6395	-22,3	11,8
1,64	-25,1	12,7
1,6405	-29,9	14,2
1,641	-34,7	16,2
1,6415	-37,9	18,2
1,642	-39,3	19,8
1,6425	-39,1	21,3
1,643	-37,8	22,9
1,6435	-35,7	24,6
1,644	-33,0	26,2
1,6445	-29,9	27,4
1,645	-26,2	28,6
1,6455	-21,2	29,7
1,646	-14,9	30,7
1,6465	-7,5	31,7
1,647	0,0	32,9
1,6475	6,3	34,1
1,648	10,7	35,1
1,6485	12,8	35,7
1,649	13,7	36,1
1,6495	14,4	36,4
1,65	15,0	37,0
1,6505	14,1	37,6
1,651	10,3	37,8
1,6515	4,3	37,2
1,652	-1,3	35,8
1,6525	-4,4	33,8
1,653	-5,1	32,0
1,6535	-4,8	30,8
1,654	-5,3	30,3
1,6545	-7,0	30,6
1,655	-9,6	31,2
1,6555	-12,6	31,9
1,656	-15,8	32,3
1,6565	-18,8	32,4
1,657	-21,3	32,2
1,6575	-22,9	31,7
1,658	-23,8	30,6
1,6585	-24,1	28,7
1,659	-24,0	26,2
1,6595	-23,6	23,2
1,66	-23,0	20,1
1,6605	-23,2	17,2
1,661	-24,5	14,6
1,6615	-26,9	12,8
1,662	-29,5	12,4
1,6625	-31,5	13,4
1,663	-32,1	15,5
1,6635	-30,8	18,2
1,664	-28,2	20,8
1,6645	-25,7	22,6
1,665	-25,1	23,3
1,6655	-26,4	23,2
1,666	-28,8	22,6
1,6665	-31,1	22,0
1,667	-32,5	21,7
1,6675	-32,8	22,0
1,668	-32,1	22,5
1,6685	-31,0	22,9
1,669	-29,6	23,1
1,6695	-27,3	23,3
1,67	-24,0	24,1
1,6705	-19,8	25,7
1,671	-15,5	27,9
1,6715	-12,3	30,2
1,672	-11,4	32,0
1,6725	-12,7	33,3
1,673	-15,1	34,4
1,6735	-16,8	35,5
1,674	-17,0	36,8
1,6745	-15,8	38,2
1,675	-14,2	39,3
1,6755	-12,8	40,1
1,676	-12,3	40,4
1,6765	-12,5	40,5
1,677	-13,1	40,3
1,6775	-13,7	39,6
1,678	-14,5	38,3
1,6785	-15,8	36,6
1,679	-17,9	34,4
1,6795	-20,1	32,2
1,68	-21,0	30,1
1,6805	-19,2	28,5
1,681	-15,1	27,1
1,6815	-10,4	25,3
1,682	-6,9	23,2
1,6825	-5,3	21,0
1,683	-5,3	19,7
1,6835	-5,9	19,5
1,684	-6,3	20,4
1,6845	-6,3	21,8
1,685	-6,1	22,8
1,6855	-6,1	23,1
1,686	-6,2	22,5
1,6865	-6,3	21,5
1,687	-6,1	20,8
1,6875	-5,6	20,9
1,688	-5,0	21,8
1,6885	-5,2	23,0
1,689	-7,0	24,5
1,6895	-10,3	26,2
1,69	-13,9	27,8
1,6905	-16,7	28,8
1,691	-18,2	28,7
1,6915	-18,8	27,3
1,692	-19,1	25,0
1,6925	-19,0	22,6
1,693	-18,4	21,1
1,6935	-17,3	20,8
1,694	-16,0	21,8
1,6945	-14,5	23,7
1,695	-12,9	26,4
1,6955	-10,9	29,6
1,696	-8,5	32,8
1,6965	-5,7	35,6
1,697	-2,5	37,8
1,6975	0,7	39,5
1,698	3,5	40,6
1,6985	5,7	41,1
1,699	7,1	41,2
1,6995	7,5	40,7
1,7	6,5	39,7
1,7005	4,2	38,5
1,701	1,3	37,7
1,7015	-0,8	37,6
1,702	-0,4	37,8
1,7025	2,1	37,8
1,703	4,9	37,0
1,7035	5,8	35,1
1,704	4,2	31,9
1,7045	0,3	27,9
1,705	-4,8	23,6
1,7055	-10,0	19,6
1,706	-14,3	16,9
1,7065	-17,1	16,3
1,707	-18,9	17,4
1,7075	-20,7	19,5
1,708	-22,9	21,6
1,7085	-25,3	22,9
1,709	-27,0	23,3
1,7095	-27,3	23,0
1,71	-26,4	22,6
1,7105	-25,0	22,3
1,711	-23,8	22,1
1,7115	-22,7	22,0
1,712	-21,8	21,7
1,7125	-20,6	21,3
1,713	-19,3	21,1
1,7135	-17,4	21,4
1,714	-15,1	22,3
1,7145	-12,1	23,5
1,715	-8,5	24,8
1,7155	-4,9	25,9
1,716	-1,8	26,8
1,7165	0,1	27,6
1,717	0,6	28,3
1,7175	-0,1	29,0
1,718	-1,8	29,6
1,7185	-4,0	29,8
1,719	-6,4	29,5
1,7195	-8,3	29,2
1,72	-9,7	29,3
1,7205	-10,7	29,9
1,721	-11,3	31,1
1,7215	-11,4	32,5
1,722	-10,9	33,5
1,7225	-9,9	33,5
1,723	-9,2	32,1
1,7235	-9,6	29,3
1,724	-11,4	25,7
1,7245	-13,8	21,8
1,725	-15,8	18,4
1,7255	-16,6	16,0
1,726	-15,9	14,8
1,7265	-14,6	14,6
1,727	-13,8	15,0
1,7275	-14,0	15,8
1,728	-15,4	16,8
1,7285	-17,1	18,2
1,729	-19,0	19,8
1,7295	-21,0	21,5
1,73	-23,2	22,9
1,7305	-25,3	24,0
1,731	-26,4	25,0
1,7315	-26,4	25,8
1,732	-25,3	26,3
1,7325	-23,7	26,6
1,733	-21,9	27,4
1,7335	-20,0	28,8
1,734	-18,1	30,3
1,7345	-16,6	31,4
1,735	-15,5	31,8
1,7355	-14,7	31,6
1,736	-14,0	30,7
1,7365	-13,3	29,1
1,737	-12,9	27,3
1,7375	-12,5	25,8
1,738	-12,0	25,3
1,7385	-11,0	25,8
1,739	-10,1	27,1
1,7395	-9,8	28,0
1,74	-9,9	27,9
1,7405	-10,1	26,6
1,741	-10,1	24,6
1,7415	-11,1	22,8
1,742	-15,4	21,3
1,7425	-24,3	20,4
1,743	-36,2	19,8
1,7435	-47,8	19,9
1,744	-56,2	21,3
1,7445	-59,6	24,3
1,745	-57,7	28,4
1,7455	-51,7	32,8
1,746	-43,5	36,3
1,7465	-34,8	37,8
1,747	-26,7	37,3
1,7475	-19,9	35,2
1,748	-14,7	32,0
1,7485	-10,7	28,5
1,749	-7,0	25,3
1,7495	-2,8	23,4
1,75	1,5	22,8
1,7505	5,5	23,1
1,751	8,7	23,8
1,7515	10,6	24,6
1,752	10,9	25,3
1,7525	9,5	26,0
1,753	6,5	26,7
1,7535	2,3	26,8
1,754	-2,2	25,7
1,7545	-6,5	23,4
1,755	-10,6	20,7
1,7555	-14,8	18,6
1,756	-18,7	17,7
1,7565	-21,5	18,1
1,757	-22,7	19,4
1,7575	-22,5	21,3
1,758	-21,1	23,5
1,7585	-18,9	25,8
1,759	-16,2	27,8
1,7595	-13,5	29,4
1,76	-11,1	30,7
1,7605	-9,0	31,8
1,761	-6,1	33,2
1,7615	-1,2	35,0
1,762	6,1	37,4
1,7625	13,9	40,1
1,763	19,2	42,3
1,7635	20,2	43,2
1,764	17,9	42,7
1,7645	14,8	41,1
1,765	12,9	38,8
1,7655	13,2	35,9
1,766	15,3	32,8
1,7665	17,4	29,7
1,767	17,6	26,4
1,7675	14,8	23,0
1,768	9,6	19,2
1,7685	3,3	15,3
1,769	-3,1	11,7
1,7695	-8,7	8,6
1,77	-12,8	6,5
1,7705	-15,5	5,2
1,771	-16,8	4,5
1,7715	-17,4	4,5
1,772	-17,6	5,2
1,7725	-18,2	6,5
1,773	-19,9	8,5
1,7735	-22,5	10,9
1,774	-25,3	13,6
1,7745	-28,1	16,0
1,775	-31,0	17,6
1,7755	-34,2	18,4
1,776	-37,3	18,7
1,7765	-39,4	19,1
1,777	-40,0	19,8
1,7775	-38,6	21,4
1,778	-35,0	23,8
1,7785	-29,7	26,6
1,779	-23,3	29,4
1,7795	-16,0	32,0
1,78	-8,3	34,2
1,7805	-1,0	35,8
1,781	5,4	37,1
1,7815	10,2	38,2
1,782	13,1	39,1
1,7825	14,0	39,7
1,783	13,1	39,6
1,7835	11,4	38,8
1,784	10,2	37,9
1,7845	9,9	37,3
1,785	9,9	37,0
1,7855	8,6	35,9
1,786	5,8	33,5
1,7865	2,1	29,3
1,787	-0,7	23,7
1,7875	-1,3	17,6
1,788	0,4	12,3
1,7885	3,3	8,9
1,789	6,1	7,6
1,7895	8,3	7,7
1,79	9,6	8,3
1,7905	10,1	8,9
1,791	9,4	9,5
1,7915	7,1	10,1
1,792	3,5	10,6
1,7925	-0,5	11,3
1,793	-3,4	12,2
1,7935	-4,7	13,2
1,794	-4,5	14,5
1,7945	-3,7	16,3
1,795	-2,6	18,6
1,7955	-1,5	21,3
1,796	-0,5	23,9
1,7965	0,4	26,1
1,797	1,0	27,5
1,7975	1,3	28,3
1,798	1,3	28,7
1,7985	0,9	29,0
1,799	0,2	29,3
1,7995	-0,9	29,5
1,8	-2,1	29,2
1,8005	-3,2	28,5
1,801	-4,0	27,6
1,8015	-4,5	26,5
1,802	-4,8	25,1
1,8025	-5,1	23,5
1,803	-5,7	21,6
1,8035	-7,3	19,5
1,804	-10,3	17,0
1,8045	-13,9	14,4
1,805	-17,3	12,3
1,8055	-19,6	11,3
1,806	-20,3	11,9
1,8065	-19,3	13,9
1,807	-16,8	16,7
1,8075	-13,4	19,7
1,808	-10,2	22,3
1,8085	-7,9	24,3
1,809	-6,3	25,6
1,8095	-4,8	26,0
1,81	-2,6	25,8
1,8105	0,2	25,2
1,811	2,9	24,8
1,8115	5,1	25,1
1,812	6,5	26,4
1,8125	7,2	28,8
1,813	7,3	31,6
1,8135	6,7	33,9
1,814	5,1	35,1
1,8145	3,1	35,0
1,815	1,2	33,9
1,8155	0,2	32,7
1,816	0,0	32,1
1,8165	0,0	31,9
1,817	-0,4	31,6
1,8175	-1,5	30,6
1,818	-2,6	29,1
1,8185	-2,7	27,5
1,819	-1,2	26,2
1,8195	1,5	25,2
1,82	3,7	24,1
1,8205	4,0	22,2
1,821	1,6	19,6
1,8215	-3,2	16,8
1,822	-9,8	14,3
1,8225	-16,8	12,6
1,823	-22,3	11,9
1,8235	-24,8	12,2
1,824	-24,0	13,0
1,8245	-21,1	14,2
1,825	-17,7	15,7
1,8255	-14,7	17,7
1,826	-12,3	20,3
1,8265	-9,9	23,5
1,827	-7,2	26,8
1,8275	-4,5	29,8
1,828	-2,3	32,5
1,8285	-0,8	34,7
1,829	-0,5	36,3
1,8295	-1,2	37,6
1,83	-2,2	38,8
1,8305	-2,6	40,0
1,831	-2,1	41,2
1,8315	-0,8	42,3
1,832	0,9	43,3
1,8325	2,4	44,6
1,833	3,3	46,2
1,8335	3,5	47,8
1,834	2,9	48,7
1,8345	1,8	48,6
1,835	0,4	47,5
1,8355	-0,9	45,4
1,836	-2,4	41,8
1,8365	-4,3	36,1
1,837	-6,8	28,9
1,8375	-9,1	21,8
1,838	-9,9	16,1
1,8385	-7,8	12,4
1,839	-2,8	10,6
1,8395	3,2	10,3
1,84	7,6	10,9
1,8405	8,9	12,2
1,841	7,9	14,0
1,8415	6,9	16,0
1,842	7,1	18,0
1,8425	8,1	19,6
1,843	8,5	21,0
1,8435	7,9	22,4
1,844	6,5	24,3
1,8445	4,8	26,8
1,845	3,1	29,8
1,8455	1,3	32,5
1,846	-0,8	34,4
1,8465	-3,2	35,2
1,847	-6,3	34,8
1,8475	-10,3	33,3
1,848	-15,0	31,1
1,8485	-19,7	28,8
1,849	-23,9	27,1
1,8495	-27,7	26,1
1,85	-31,5	26,0
1,8505	-35,2	26,5
1,851	-37,9	27,3
1,8515	-38,5	28,2
1,852	-36,6	28,9
1,8525	-32,6	29,3
1,853	-27,3	29,3
1,8535	-21,0	29,0
1,854	-14,5	28,6
1,8545	-8,3	28,5
1,855	-3,4	28,8
1,8555	-0,1	29,5
1,856	1,8	30,1
1,8565	2,9	30,4
1,857	3,5	30,0
1,8575	3,7	29,1
1,858	3,7	27,9
1,8585	3,9	27,1
1,859	4,5	26,8
1,8595	6,1	27,3
1,86	8,8	28,5
1,8605	11,8	30,4
1,861	13,5	32,4
1,8615	12,1	33,7
1,862	6,9	33,2
1,8625	-0,6	30,8
1,863	-8,3	27,7
1,8635	-14,1	25,2
1,864	-17,3	24,1
1,8645	-17,7	24,6
1,865	-15,9	26,1
1,8655	-12,8	28,0
1,866	-9,4	29,7
1,8665	-6,0	31,0
1,867	-2,8	32,2
1,8675	0,1	33,0
1,868	2,6	33,4
1,8685	4,9	32,9
1,869	7,9	31,5
1,8695	12,0	29,5
1,87	16,3	27,2
1,8705	19,4	24,8
1,871	20,5	22,2
1,8715	20,0	20,0
1,872	19,2	18,8
1,8725	18,2	19,0
1,873	17,2	20,6
1,8735	16,2	22,8
1,874	15,8	24,6
1,8745	16,4	25,4
1,875	17,5	25,3
1,8755	18,2	24,4
1,876	17,5	23,1
1,8765	15,1	21,6
1,877	11,6	20,3
1,8775	8,0	20,1
1,878	5,0	21,4
1,8785	3,1	23,9
1,879	2,2	26,7
1,8795	2,0	29,4
1,88	2,2	31,7
1,8805	2,2	33,4
1,881	1,4	34,7
1,8815	-0,3	35,4
1,882	-3,1	35,6
1,8825	-6,8	34,8
1,883	-11,4	33,0
1,8835	-16,7	30,5
1,884	-22,1	27,9
1,8845	-26,8	25,4
1,885	-30,2	23,7
1,8855	-31,4	22,8
1,886	-30,4	22,7
1,8865	-27,7	23,3
1,887	-23,7	24,4
1,8875	-19,1	26,0
1,888	-14,3	27,8
1,8885	-10,0	29,4
1,889	-6,4	30,6
1,8895	-2,8	31,5
1,89	1,8	32,3
1,8905	7,7	32,9
1,891	13,5	32,6
1,8915	16,9	30,8
1,892	16,8	27,6
1,8925	13,7	24,1
1,893	9,5	21,3
1,8935	5,8	19,8
1,894	3,5	19,7
1,8945	2,8	20,9
1,895	2,8	22,8
1,8955	2,7	25,1
1,896	1,9	27,0
1,8965	0,3	28,3
1,897	-1,6	28,3
1,8975	-3,7	27,0
1,898	-5,5	25,2
1,8985	-6,5	23,9
1,899	-6,4	24,2
1,8995	-5,7	25,8
1,9	-5,3	27,8
1,9005	-6,0	29,1
1,901	-7,5	29,4
1,9015	-8,6	28,9
1,902	-8,6	28,2
1,9025	-7,8	27,3
1,903	-7,3	26,2
1,9035	-8,0	24,9
1,904	-11,0	23,0
1,9045	-16,3	20,3
1,905	-23,0	17,2
1,9055	-29,0	14,5
1,906	-32,4	12,9
1,9065	-32,8	13,1
1,907	-30,4	14,7
1,9075	-26,8	17,1
1,908	-23,7	19,4
1,9085	-22,4	21,1
1,909	-22,9	22,1
1,9095	-24,1	22,7
1,91	-24,5	23,6
1,9105	-23,4	25,2
1,911	-21,0	27,5
1,9115	-17,9	30,2
1,912	-14,6	32,5
1,9125	-11,5	34,3
1,913	-8,3	35,9
1,9135	-5,0	37,5
1,914	-1,8	39,5
1,9145	1,1	42,0
1,915	3,7	44,6
1,9155	5,8	46,7
1,916	7,2	47,5
1,9165	8,0	46,8
1,917	8,1	44,8
1,9175	7,5	41,8
1,918	6,7	38,3
1,9185	6,6	34,9
1,919	8,4	31,8
1,9195	11,7	28,6
1,92	15,2	24,9
1,9205	17,3	20,8
1,921	16,8	17,1
1,9215	13,4	14,8
1,922	7,6	14,2
1,9225	0,7	15,2
1,923	-6,1	17,3
1,9235	-11,6	19,8
1,924	-15,1	22,0
1,9245	-16,7	23,5
1,925	-16,9	24,2
1,9255	-16,6	24,1
1,926	-15,9	23,6
1,9265	-14,6	23,4
1,927	-12,8	24,0
1,9275	-10,8	25,2
1,928	-8,6	26,6
1,9285	-6,2	28,3
1,929	-4,1	30,3
1,9295	-2,8	32,7
1,93	-2,8	35,2
1,9305	-3,8	37,3
1,931	-5,4	38,3
1,9315	-6,8	37,8
1,932	-7,6	36,4
1,9325	-7,8	34,6
1,933	-7,6	33,1
1,9335	-6,9	32,2
1,934	-5,7	31,3
1,9345	-4,2	30,6
1,935	-3,3	29,9
1,9355	-3,6	29,4
1,936	-5,0	29,3
1,9365	-7,4	29,4
1,937	-10,1	29,9
1,9375	-12,4	30,5
1,938	-13,8	30,9
1,9385	-14,5	30,5
1,939	-14,8	29,1
1,9395	-14,4	27,1
1,94	-12,9	25,1
1,9405	-10,2	23,2
1,941	-7,5	21,0
1,9415	-6,5	18,6
1,942	-8,4	16,5
1,9425	-13,3	15,3
1,943	-21,2	15,1
1,9435	-31,0	15,8
1,944	-41,1	17,0
1,9445	-49,2	18,3
1,945	-54,2	19,6
1,9455	-56,6	21,3
1,946	-57,3	23,6
1,9465	-56,0	26,3
1,947	-51,7	28,9
1,9475	-44,3	30,6
1,948	-35,0	31,2
1,9485	-25,9	30,6
1,949	-18,6	29,1
1,9495	-13,8	27,5
1,95	-10,4	26,5
1,9505	-7,3	26,4
1,951	-3,7	27,5
1,9515	0,6	29,1
1,952	4,4	30,7
1,9525	6,7	31,4
1,953	6,8	30,8
1,9535	4,3	28,8
1,954	0,1	26,1
1,9545	-4,3	23,4
1,955	-6,7	20,8
1,9555	-5,3	18,6
1,956	0,5	16,9
1,9565	9,0	16,4
1,957	16,9	16,8
1,9575	21,5	17,6
1,958	21,4	17,9
1,9585	17,7	17,8
1,959	12,4	17,5
1,9595	7,1	17,4
1,96	2,7	17,5
1,9605	-0,7	17,7
1,961	-3,2	18,2
1,9615	-4,9	19,1
1,962	-6,1	20,2
1,9625	-7,1	21,4
1,963	-8,0	22,3
1,9635	-8,7	22,5
1,964	-9,0	21,9
1,9645	-9,3	20,7
1,965	-9,6	19,2
1,9655	-9,9	18,2
1,966	-10,1	18,0
1,9665	-10,1	18,7
1,967	-10,1	20,0
1,9675	-10,3	21,7
1,968	-10,8	23,3
1,9685	-12,0	24,2
1,969	-13,7	23,9
1,9695	-15,4	22,5
1,97	-16,6	20,8
1,9705	-16,9	19,6
1,971	-16,4	18,8
1,9715	-15,5	18,3
1,972	-14,5	18,0
1,9725	-13,7	18,4
1,973	-13,4	19,7
1,9735	-13,9	21,7
1,974	-15,1	23,9
1,9745	-17,1	25,5
1,975	-20,6	26,0
1,9755	-25,2	25,7
1,976	-29,7	25,1
1,9765	-32,7	24,8
1,977	-33,6	25,3
1,9775	-32,5	26,6
1,978	-30,0	28,1
1,9785	-26,7	29,3
1,979	-22,9	29,8
1,9795	-18,5	29,6
1,98	-13,3	28,9
1,9805	-7,8	28,2
1,981	-2,8	27,2
1,9815	1,2	25,8
1,982	3,8	24,4
1,9825	5,5	23,2
1,983	6,3	22,4
1,9835	6,2	22,0
1,984	4,9	21,7
1,9845	2,5	21,2
1,985	-0,4	20,4
1,9855	-2,9	19,5
1,986	-4,0	19,0
1,9865	-4,0	18,7
1,987	-3,4	18,3
1,9875	-2,9	17,8
1,988	-2,6	17,5
1,9885	-2,3	18,0
1,989	-1,5	19,1
1,9895	0,0	20,4
1,99	2,3	21,8
1,9905	4,7	23,2
1,991	6,7	24,4
1,9915	8,0	25,3
1,992	8,9	26,1
1,9925	9,6	26,7
1,993	9,9	27,5
1,9935	9,1	28,6
1,994	7,1	29,9
1,9945	3,9	31,2
1,995	-0,0	32,2
1,9955	-4,0	32,8
1,996	-6,9	33,1
1,9965	-7,8	33,5
1,997	-6,1	34,1
1,9975	-2,6	34,2
1,998	1,0	33,5
1,9985	3,0	31,9
1,999	2,1	29,7
1,9995	-1,6	27,4
2	-7,3	25,7
2,0005	-13,3	25,0
2,001	-18,2	25,5
2,0015	-21,5	26,6
2,002	-23,2	27,9
2,0025	-23,5	29,2
2,003	-22,3	30,4
2,0035	-19,6	31,4
2,004	-15,5	32,4
2,0045	-10,3	33,7
2,005	-4,7	35,5
2,0055	0,3	37,4
2,006	3,5	38,6
2,0065	4,6	38,7
2,007	4,5	37,6
2,0075	4,4	35,7
2,008	5,3	33,8
2,0085	7,4	32,4
2,009	10,8	31,7
2,0095	14,7	31,8
2,01	17,9	32,8
2,0105	19,7	34,4
2,011	19,8	36,2
2,0115	18,5	37,7
2,012	16,4	38,4
2,0125	13,5	37,8
2,013	8,9	35,5
2,0135	1,9	30,9
2,014	-7,2	24,5
2,0145	-16,3	17,6
2,015	-23,3	11,9
2,0155	-27,1	8,2
2,016	-28,8	6,1
2,0165	-29,5	5,3
2,017	-30,0	5,6
2,0175	-30,6	7,1
2,018	-31,1	9,0
2,0185	-31,6	10,9
2,019	-31,3	12,8
2,0195	-29,8	14,8
2,02	-27,0	16,8
2,0205	-23,5	18,5
2,021	-19,9	19,7
2,0215	-16,7	20,6
2,022	-13,8	21,5
2,0225	-11,2	22,3
2,023	-9,3	22,7
2,0235	-8,6	22,6
2,024	-8,9	22,0
2,0245	-9,9	21,0
2,025	-11,5	19,8
2,0255	-13,4	18,5
2,026	-15,2	17,2
2,0265	-16,5	16,1
2,027	-17,4	15,9
2,0275	-18,5	16,9
2,028	-20,0	18,9
2,0285	-21,8	21,2
2,029	-24,2	23,2
2,0295	-27,3	24,1
2,03	-31,6	23,8
2,0305	-37,3	22,7
2,031	-43,8	21,8
2,0315	-49,0	21,5
2,032	-51,1	22,4
2,0325	-49,0	24,1
2,033	-43,1	26,4
2,0335	-34,3	29,1
2,034	-24,3	31,8
2,0345	-14,1	34,1
2,035	-4,8	35,7
2,0355	3,4	36,3
2,036	10,4	36,3
2,0365	15,4	36,0
2,037	17,2	36,0
2,0375	15,3	35,8
2,038	11,1	35,2
2,0385	6,8	34,0
2,039	3,5	32,8
2,0395	0,3	31,9
2,04	-3,4	32,0
2,0405	-6,9	33,0
2,041	-9,0	34,7
2,0415	-9,4	36,0
2,042	-8,7	35,7
2,0425	-7,5	33,6
2,043	-5,9	29,8
2,0435	-4,4	25,6
2,044	-4,0	22,0
2,0445	-5,2	19,5
2,045	-7,8	18,4
2,0455	-11,3	18,3
2,046	-15,4	18,9
2,0465	-19,8	19,8
2,047	-23,9	20,8
2,0475	-27,5	21,8
2,048	-30,3	22,8
2,0485	-32,6	23,9
2,049	-34,1	25,0
2,0495	-34,7	25,9
2,05	-34,3	26,3
2,0505	-32,9	25,9
2,051	-30,5	25,2
2,0515	-27,1	24,4
2,052	-23,3	24,0
2,0525	-19,5	24,2
2,053	-15,8	24,9
2,0535	-12,0	26,2
2,054	-8,3	27,6
2,0545	-5,0	29,1
2,055	-2,7	30,4
2,0555	-1,9	31,7
2,056	-2,2	32,8
2,0565	-2,5	33,8
2,057	-2,5	34,5
2,0575	-2,6	34,4
2,058	-3,3	33,1
2,0585	-4,7	30,5
2,059	-6,1	27,4
2,0595	-7,1	24,4
2,06	-7,5	22,1
2,0605	-7,6	21,1
2,061	-7,8	21,6
2,0615	-8,0	23,5
2,062	-8,0	26,1
2,0625	-7,7	28,8
2,063	-7,2	31,0
2,0635	-6,5	32,3
2,064	-6,0	32,9
2,0645	-6,0	32,8
2,065	-6,4	32,0
2,0655	-7,0	30,6
2,066	-7,1	29,0
2,0665	-5,0	27,4
2,067	-0,3	26,5
2,0675	5,5	26,3
2,068	9,1	26,2
2,0685	8,4	25,6
2,069	4,6	24,6
2,0695	-0,3	23,9
2,07	-4,1	23,8
2,0705	-6,2	24,3
2,071	-6,9	24,9
2,0715	-7,1	25,0
2,072	-7,1	24,8
2,0725	-6,4	24,5
2,073	-4,8	24,7
2,0735	-2,3	25,6
2,074	0,4	27,1
2,0745	3,0	29,0
2,075	5,1	31,0
2,0755	6,8	33,1
2,076	8,0	35,2
2,0765	8,5	36,8
2,077	8,4	37,6
2,0775	7,8	37,8
2,078	6,9	37,7
2,0785	6,3	37,6
2,079	6,8	37,8
2,0795	8,3	38,4
2,08	9,8	39,1
2,0805	10,3	39,4
2,081	9,4	39,0
2,0815	8,0	38,1
2,082	6,4	36,9
2,0825	5,0	35,8
2,083	3,9	34,8
2,0835	3,2	34,0
2,084	2,1	33,2
2,0845	0,2	32,2
2,085	-2,5	31,0
2,0855	-4,8	29,7
2,086	-5,8	28,0
2,0865	-5,8	26,0
2,087	-5,8	23,6
2,0875	-6,8	21,2
2,088	-9,0	19,2
2,0885	-11,9	18,2
2,089	-14,4	18,7
2,0895	-16,6	20,6
2,09	-18,8	23,1
2,0905	-21,3	25,8
2,091	-24,3	28,2
2,0915	-27,3	30,0
2,092	-29,3	31,6
2,0925	-29,5	33,0
2,093	-27,7	34,2
2,0935	-24,5	34,8
2,094	-20,2	34,7
2,0945	-15,0	34,7
2,095	-8,9	35,3
2,0955	-2,1	37,1
2,096	4,6	39,7
2,0965	10,4	42,5
2,097	14,5	44,4
2,0975	16,5	45,0
2,098	16,6	44,5
2,0985	15,3	43,7
2,099	13,6	43,3
2,0995	12,3	43,7
2,1	11,6	44,6
2,1005	10,9	45,5
2,101	9,8	45,7
2,1015	8,2	45,0
2,102	6,2	43,6
2,1025	3,5	41,6
2,103	0,5	39,4
2,1035	-2,2	37,2
2,104	-3,7	34,8
2,1045	-4,1	31,6
2,105	-4,3	28,0
2,1055	-4,5	24,5
2,106	-4,7	21,8
2,1065	-4,7	20,0
2,107	-4,6	18,9
2,1075	-5,7	18,0
2,108	-9,3	16,8
2,1085	-16,0	15,0
2,109	-24,4	12,8
2,1095	-32,3	10,9
2,11	-37,0	10,4
2,1105	-37,7	12,1
2,111	-34,6	16,1
2,1115	-29,4	21,6
2,112	-24,4	27,3
2,1125	-21,2	32,4
2,113	-19,8	36,1
2,1135	-19,3	38,4
2,114	-18,7	39,2
2,1145	-18,1	38,6
2,115	-17,7	37,1
2,1155	-17,9	34,9
2,116	-18,9	32,7
2,1165	-20,9	30,9
2,117	-23,8	30,2
2,1175	-26,9	30,5
2,118	-29,4	31,6
2,1185	-31,2	32,9
2,119	-32,7	34,1
2,1195	-34,2	35,0
2,12	-35,5	35,3
2,1205	-35,2	35,0
2,121	-31,0	34,3
2,1215	-22,4	33,4
2,122	-10,6	32,8
2,1225	1,9	32,4
2,123	12,2	32,0
2,1235	18,6	31,4
2,124	20,5	30,3
2,1245	18,5	28,9
2,125	14,3	27,2
2,1255	10,1	25,8
2,126	7,4	25,0
2,1265	6,4	25,1
2,127	6,2	25,9
2,1275	5,7	27,7
2,128	4,9	30,0
2,1285	4,6	32,4
2,129	5,7	34,0
2,1295	7,8	34,6
2,13	10,1	34,3
2,1305	11,8	33,7
2,131	12,9	32,7
2,1315	13,3	31,4
2,132	12,6	30,0
2,1325	10,7	29,0
2,133	7,8	28,8
2,1335	4,2	28,9
2,134	0,5	28,9
2,1345	-3,2	28,3
2,135	-6,4	27,2
2,1355	-8,7	25,9
2,136	-9,8	24,6
2,1365	-10,1	23,6
2,137	-10,0	22,9
2,1375	-10,2	22,2
2,138	-11,0	21,3
2,1385	-12,3	20,2
2,139	-13,4	19,3
2,1395	-13,8	19,1
2,14	-13,1	20,0
2,1405	-11,5	21,9
2,141	-9,6	24,3
2,1415	-8,1	26,7
2,142	-7,7	28,5
2,1425	-8,7	29,5
2,143	-10,3	29,9
2,1435	-11,9	30,1
2,144	-12,8	30,6
2,1445	-12,8	31,6
2,145	-12,0	33,0
2,1455	-10,9	34,7
2,146	-9,7	36,5
2,1465	-9,1	38,1
2,147	-9,6	39,4
2,1475	-11,5	40,5
2,148	-14,7	41,1
2,1485	-18,8	41,2
2,149	-23,7	40,6
2,1495	-29,2	39,8
2,15	-35,0	38,9
2,1505	-40,8	38,3
2,151	-45,7	38,2
2,1515	-48,8	38,5
2,152	-50,0	38,9
2,1525	-49,5	39,0
2,153	-47,8	38,4
2,1535	-45,4	37,6
2,154	-42,0	36,9
2,1545	-37,6	36,9
2,155	-31,7	37,9
2,1555	-24,2	39,8
2,156	-15,6	42,5
2,1565	-6,3	45,7
2,157	2,7	48,8
2,1575	8,8	51,0
2,158	9,8	51,5
2,1585	5,5	50,4
2,159	-1,2	48,3
2,1595	-7,3	45,4
2,16	-11,5	41,7
2,1605	-14,3	37,1
2,161	-16,4	32,3
2,1615	-17,4	28,6
2,162	-16,5	27,0
2,1625	-13,6	27,5
2,163	-10,0	29,5
2,1635	-7,6	31,7
2,164	-8,1	33,5
2,1645	-11,6	34,4
2,165	-17,1	34,6
2,1655	-22,4	34,2
2,166	-25,7	33,6
2,1665	-25,9	33,5
2,167	-23,7	34,0
2,1675	-20,3	35,0
2,168	-16,6	36,1
2,1685	-12,2	36,7
2,169	-6,6	36,6
2,1695	-0,8	35,7
2,17	3,0	34,1
2,1705	3,6	32,1
2,171	1,5	30,3
2,1715	-1,9	29,0
2,172	-5,4	28,3
2,1725	-8,3	28,3
2,173	-10,6	28,6
2,1735	-12,2	28,8
2,174	-13,3	28,7
2,1745	-13,8	28,1
2,175	-14,3	27,4
2,1755	-15,1	26,5
2,176	-16,5	25,7
2,1765	-18,5	25,2
2,177	-20,8	25,2
2,1775	-23,1	25,6
2,178	-25,1	26,0
2,1785	-26,7	26,1
2,179	-27,6	26,1
2,1795	-28,3	26,0
2,18	-28,9	25,6
2,1805	-29,9	24,5
2,181	-31,4	22,8
2,1815	-32,8	21,4
2,182	-33,9	21,3
2,1825	-34,6	22,5
2,183	-34,7	24,5
2,1835	-34,2	26,8
2,184	-32,8	29,0
2,1845	-30,3	31,1
2,185	-27,3	33,1
2,1855	-25,0	34,7
2,186	-24,3	36,0
2,1865	-25,7	37,0
2,187	-27,8	37,7
2,1875	-29,3	37,7
2,188	-29,0	37,0
2,1885	-27,3	36,1
2,189	-24,9	35,6
2,1895	-22,4	36,0
2,19	-20,4	37,2
2,1905	-19,3	38,2
2,191	-18,9	38,3
2,1915	-19,0	37,2
2,192	-18,9	35,3
2,1925	-17,9	32,9
2,193	-16,5	30,2
2,1935	-15,4	27,5
2,194	-15,8	25,1
2,1945	-18,1	23,5
2,195	-21,2	22,8
2,1955	-23,5	23,4
2,196	-23,5	25,3
2,1965	-20,7	28,1
2,197	-15,1	31,3
2,1975	-8,2	33,9
2,198	-2,7	34,8
2,1985	-0,3	33,5
2,199	-1,1	30,6
2,1995	-3,1	27,4
2,2	-4,5	25,3
2,2005	-4,8	24,7
2,201	-4,8	25,5
2,2015	-5,5	27,0
2,202	-6,7	28,7
2,2025	-7,6	30,1
2,203	-8,0	31,1
2,2035	-8,2	31,7
2,204	-8,8	32,0
2,2045	-10,6	32,0
2,205	-14,1	31,5
2,2055	-19,3	30,2
2,206	-25,4	27,8
2,2065	-31,6	24,8
2,207	-37,0	21,6
2,2075	-40,6	18,7
2,208	-41,6	16,4
2,2085	-39,6	15,1
2,209	-34,6	15,0
2,2095	-27,0	16,0
2,21	-17,6	17,7
2,2105	-8,1	19,9
2,211	-0,0	22,2
2,2115	5,3	24,4
2,212	7,2	26,7
2,2125	6,2	29,1
2,213	3,7	31,8
2,2135	0,9	34,3
2,214	-1,8	35,9
2,2145	-4,3	35,8
2,215	-6,9	33,9
2,2155	-10,3	30,9
2,216	-14,8	28,3
2,2165	-19,6	26,9
2,217	-22,9	26,8
2,2175	-23,6	27,5
2,218	-22,2	28,1
2,2185	-20,5	27,8
2,219	-20,5	26,6
2,2195	-22,3	24,8
2,22	-25,3	23,3
2,2205	-28,3	22,8
2,221	-30,3	23,5
2,2215	-30,9	24,7
2,222	-30,1	25,9
2,2225	-28,4	27,0
2,223	-26,4	28,2
2,2235	-24,3	29,5
2,224	-21,9	30,8
2,2245	-18,3	31,8
2,225	-13,8	32,3
2,2255	-9,0	32,6
2,226	-5,3	33,0
2,2265	-3,7	33,8
2,227	-4,3	34,9
2,2275	-6,7	36,2
2,228	-9,8	37,5
2,2285	-12,3	38,7
2,229	-13,4	39,9
2,2295	-13,6	41,1
2,23	-14,4	41,6
2,2305	-17,1	40,9
2,231	-21,6	38,9
2,2315	-26,0	36,0
2,232	-28,1	32,8
2,2325	-26,8	29,8
2,233	-22,6	27,5
2,2335	-16,8	25,7
2,234	-10,5	24,3
2,2345	-4,6	23,4
2,235	0,4	23,1
2,2355	4,3	23,3
2,236	6,6	23,8
2,2365	7,1	24,5
2,237	6,3	25,5
2,2375	5,5	27,0
2,238	4,9	28,8
2,2385	3,8	30,1
2,239	0,7	30,0
2,2395	-4,7	28,0
2,24	-11,1	24,6
2,2405	-16,6	20,8
2,241	-20,1	17,8
2,2415	-21,4	16,4
2,242	-21,0	17,1
2,2425	-20,1	19,3
2,243	-19,2	22,3
2,2435	-18,3	25,3
2,244	-17,5	27,8
2,2445	-16,7	29,7
2,245	-15,7	31,1
2,2455	-14,1	32,4
2,246	-11,2	33,8
2,2465	-6,6	35,2
2,247	-1,0	36,5
2,2475	3,6	37,3
2,248	5,7	37,3
2,2485	4,9	36,5
2,249	2,3	35,3
2,2495	-1,3	34,1
2,25	-4,9	33,4
2,2505	-7,8	32,9
2,251	-9,5	32,7
2,2515	-10,1	32,3
2,252	-10,1	31,8
2,2525	-9,8	31,2
2,253	-9,5	29,9
2,2535	-9,9	27,8
2,254	-11,1	25,0
2,2545	-12,8	22,4
2,255	-14,9	20,8
2,2555	-17,3	20,5
2,256	-19,5	21,4
2,2565	-21,3	23,3
2,257	-22,3	25,8
2,2575	-22,3	28,3
2,258	-21,3	30,3
2,2585	-19,6	31,3
2,259	-17,8	31,6
2,2595	-16,4	31,4
2,26	-15,9	30,8
2,2605	-15,8	30,1
2,261	-15,8	29,1
2,2615	-15,0	28,1
2,262	-13,6	26,9
2,2625	-12,1	26,3
2,263	-10,8	26,3
2,2635	-10,0	27,2
2,264	-9,6	28,6
2,2645	-9,7	29,9
2,265	-10,8	30,8
2,2655	-12,4	31,5
2,266	-13,4	32,3
2,2665	-12,4	33,5
2,267	-9,5	34,8
2,2675	-6,1	35,7
2,268	-4,5	35,8
2,2685	-5,1	35,0
2,269	-6,9	33,8
2,2695	-8,8	32,7
2,27	-10,0	31,7
2,2705	-10,9	30,9
2,271	-11,7	30,4
2,2715	-12,2	30,6
2,272	-12,3	31,6
2,2725	-12,6	33,2
2,273	-13,8	34,9
2,2735	-17,0	36,4
2,274	-22,1	37,2
2,2745	-28,0	37,7
2,275	-33,4	37,8
2,2755	-37,8	37,8
2,276	-40,9	37,5
2,2765	-42,3	37,1
2,277	-41,4	37,0
2,2775	-38,4	37,1
2,278	-34,5	36,6
2,2785	-30,7	35,0
2,279	-27,2	32,7
2,2795	-23,3	30,6
2,28	-19,0	29,6
2,2805	-14,4	30,0
2,281	-10,2	31,7
2,2815	-6,7	34,0
2,282	-4,0	36,2
2,2825	-2,3	37,3
2,283	-1,3	37,5
2,2835	-1,3	37,4
2,284	-2,6	37,2
2,2845	-5,8	36,9
2,285	-11,1	36,4
2,2855	-17,8	36,0
2,286	-24,5	36,5
2,2865	-29,3	37,9
2,287	-30,9	40,0
2,2875	-30,2	41,7
2,288	-28,2	42,4
2,2885	-25,4	42,6
2,289	-21,6	42,7
2,2895	-17,0	43,3
2,29	-12,5	44,1
2,2905	-8,7	44,8
2,291	-5,1	45,5
2,2915	-1,1	46,3
2,292	3,7	47,4
2,2925	8,8	48,6
2,293	12,8	49,7
2,2935	14,2	50,5
2,294	12,5	50,9
2,2945	8,3	51,0
2,295	2,8	51,0
2,2955	-3,3	50,9
2,296	-9,5	50,5
2,2965	-15,3	49,8
2,297	-19,3	48,7
2,2975	-19,3	47,2
2,298	-14,6	45,3
2,2985	-6,8	43,0
2,299	0,8	40,3
2,2995	5,3	37,8
2,3	6,3	36,2
2,3005	5,5	36,2
2,301	4,2	37,8
2,3015	3,2	40,1
2,302	2,4	41,8
2,3025	1,2	42,1
2,303	-1,1	40,5
2,3035	-4,5	37,5
2,304	-8,4	33,7
2,3045	-12,0	30,3
2,305	-14,3	28,1
2,3055	-14,3	27,6
2,306	-11,3	28,7
2,3065	-5,8	30,8
2,307	0,0	33,4
2,3075	4,5	35,8
2,308	6,8	37,6
2,3085	7,4	38,8
2,309	7,4	39,4
2,3095	7,1	39,5
2,31	6,6	38,8
2,3105	5,2	37,4
2,311	2,1	35,3
2,3115	-2,9	33,2
2,312	-9,1	31,7
2,3125	-15,0	31,4
2,313	-19,3	32,3
2,3135	-21,4	34,0
2,314	-21,0	35,9
2,3145	-18,9	37,7
2,315	-16,4	38,8
2,3155	-14,7	39,1
2,316	-13,8	38,8
2,3165	-13,1	38,1
2,317	-11,8	37,5
2,3175	-9,7	37,3
2,318	-7,4	37,4
2,3185	-5,6	37,9
2,319	-4,4	38,6
2,3195	-3,6	39,3
2,32	-3,4	39,7
2,3205	-4,0	39,2
2,321	-5,1	37,9
2,3215	-5,9	36,7
2,322	-5,3	36,1
2,3225	-2,1	36,7
2,323	3,6	38,1
2,3235	10,5	39,7
2,324	16,1	40,5
2,3245	18,3	40,1
2,325	16,7	38,8
2,3255	12,6	36,8
2,326	7,8	35,0
2,3265	4,2	33,8
2,327	2,3	34,1
2,3275	2,1	35,5
2,328	2,8	37,3
2,3285	4,1	38,8
2,329	5,4	39,8
2,3295	5,8	40,5
2,33	3,3	41,1
2,3305	-4,2	41,0
2,331	-17,1	39,9
2,3315	-33,0	37,9
2,332	-47,8	35,7
2,3325	-57,8	34,0
2,333	-62,1	33,1
2,3335	-61,4	32,8
2,334	-57,6	32,6
2,3345	-52,5	32,1
2,335	-47,1	31,3
2,3355	-41,7	30,1
2,336	-36,0	28,8
2,3365	-29,5	27,9
2,337	-22,1	27,9
2,3375	-14,1	28,9
2,338	-6,8	30,7
2,3385	-1,3	32,7
2,339	2,0	34,7
2,3395	3,7	36,6
2,34	5,1	38,9
2,3405	6,7	41,8
2,341	8,3	44,8
2,3415	9,5	47,1
2,342	10,4	47,5
2,3425	11,6	46,1
2,343	13,1	43,8
2,3435	14,5	41,4
2,344	15,2	40,1
2,3445	14,5	40,1
2,345	11,8	41,0
2,3455	7,4	42,1
2,346	2,0	43,1
2,3465	-3,1	43,6
2,347	-7,0	43,6
2,3475	-9,6	42,8
2,348	-11,3	41,5
2,3485	-12,0	40,1
2,349	-11,2	38,7
2,3495	-9,0	37,2
2,35	-6,6	35,4
2,3505	-5,8	33,3
2,351	-6,8	31,1
2,3515	-8,8	29,3
2,352	-10,2	28,0
2,3525	-10,1	27,1
2,353	-8,4	26,3
2,3535	-5,8	25,6
2,354	-3,0	25,3
2,3545	-0,4	25,8
2,355	2,0	27,1
2,3555	4,4	29,1
2,356	6,4	31,6
2,3565	7,3	34,1
2,357	6,6	36,4
2,3575	4,3	38,1
2,358	1,7	38,9
2,3585	0,1	39,0
2,359	-0,0	38,7
2,3595	1,4	38,3
2,36	3,7	38,0
2,3605	6,0	37,8
2,361	7,6	37,6
2,3615	8,0	37,5
2,362	7,4	37,5
2,3625	6,3	37,5
2,363	5,0	37,4
2,3635	3,8	36,9
2,364	2,8	35,6
2,3645	1,7	33,5
2,365	0,7	30,9
2,3655	0,1	28,8
2,366	0,1	27,9
2,3665	0,5	28,3
2,367	1,0	29,8
2,3675	1,0	31,3
2,368	0,4	32,4
2,3685	-0,9	32,8
2,369	-3,7	32,4
2,3695	-8,5	31,3
2,37	-14,2	29,6
2,3705	-18,3	28,4
2,371	-18,1	28,5
2,3715	-13,6	30,0
2,372	-7,4	32,2
2,3725	-3,3	33,7
2,373	-3,5	33,8
2,3735	-7,0	32,5
2,374	-11,1	30,8
2,3745	-13,4	29,6
2,375	-13,2	29,0
2,3755	-10,8	29,3
2,376	-7,4	30,1
2,3765	-4,1	31,0
2,377	-1,5	32,0
2,3775	0,3	32,9
2,378	1,3	33,7
2,3785	1,1	34,3
2,379	-0,6	34,6
2,3795	-3,3	34,5
2,38	-6,2	34,0
2,3805	-8,0	32,9
2,381	-8,5	31,3
2,3815	-7,9	29,3
2,382	-7,0	27,3
2,3825	-6,3	25,7
2,383	-6,2	25,1
2,3835	-6,6	25,3
2,384	-7,3	25,8
2,3845	-8,5	26,1
2,385	-9,7	25,9
2,3855	-10,3	25,6
2,386	-10,4	25,3
2,3865	-10,3	25,4
2,387	-10,9	25,9
2,3875	-12,2	26,7
2,388	-14,2	27,5
2,3885	-16,4	28,1
2,389	-18,1	28,4
2,3895	-18,6	28,5
2,39	-17,2	28,6
2,3905	-14,4	28,6
2,391	-10,5	28,3
2,3915	-5,8	27,6
2,392	-0,5	26,8
2,3925	5,0	26,5
2,393	10,0	26,8
2,3935	14,3	27,8
2,394	17,1	28,9
2,3945	17,8	29,9
2,395	16,6	30,7
2,3955	14,4	30,9
2,396	12,0	30,9
2,3965	9,8	30,8
2,397	7,1	30,4
2,3975	3,3	29,8
2,398	-1,4	28,8
2,3985	-5,2	27,7
2,399	-6,3	26,7
2,3995	-5,1	25,8
2,4	-3,6	25,0
2,4005	-3,5	24,6
2,401	-4,8	24,9
2,4015	-6,2	26,0
2,402	-6,6	27,4
2,4025	-5,4	28,7
2,403	-2,5	29,6
2,4035	1,2	29,6
2,404	4,6	28,7
2,4045	6,9	27,1
2,405	8,1	25,4
2,4055	8,6	24,1
2,406	8,6	23,3
2,4065	8,8	23,1
2,407	9,9	24,0
2,4075	12,3	26,0
2,408	15,6	28,7
2,4085	18,2	31,0
2,409	18,3	32,2
2,4095	15,3	32,2
2,41	10,0	31,4
2,4105	3,6	30,5
2,411	-2,6	30,1
2,4115	-7,6	30,6
2,412	-11,2	32,1
2,4125	-13,2	34,4
2,413	-13,7	36,8
2,4135	-12,8	38,8
2,414	-10,4	39,7
2,4145	-6,5	39,4
2,415	-1,8	38,3
2,4155	2,9	37,1
2,416	7,3	36,4
2,4165	11,3	37,2
2,417	15,0	39,6
2,4175	18,1	43,1
2,418	20,0	46,2
2,4185	20,6	47,5
2,419	20,4	46,7
2,4195	20,3	44,9
2,42	20,5	42,7
2,4205	20,0	40,0
2,421	17,8	36,3
2,4215	14,1	31,6
2,422	9,7	26,5
2,4225	6,1	22,0
2,423	4,3	19,1
2,4235	4,5	18,1
2,424	5,7	18,7
2,4245	6,7	20,1
2,425	6,8	21,6
2,4255	6,1	22,8
2,426	4,5	24,1
2,4265	1,7	25,4
2,427	-2,6	26,3
2,4275	-7,9	26,4
2,428	-12,9	25,8
2,4285	-16,5	25,3
2,429	-19,0	25,3
2,4295	-21,9	25,8
2,43	-25,8	26,5
2,4305	-30,2	27,3
2,431	-33,8	28,1
2,4315	-35,8	28,7
2,432	-35,5	29,2
2,4325	-32,8	29,8
2,433	-27,8	30,7
2,4335	-21,1	31,9
2,434	-13,6	33,4
2,4345	-5,7	35,2
2,435	2,4	37,3
2,4355	10,0	39,2
2,436	16,4	40,7
2,4365	21,0	41,8
2,437	23,8	42,7
2,4375	25,2	43,6
2,438	25,3	44,3
2,4385	23,7	44,2
2,439	20,7	42,9
2,4395	16,8	40,7
2,44	12,7	38,4
2,4405	8,9	36,8
2,441	6,1	36,0
2,4415	5,1	35,4
2,442	6,4	34,3
2,4425	9,8	32,3
2,443	13,9	30,2
2,4435	16,8	28,4
2,444	16,8	27,0
2,4445	13,6	25,7
2,445	8,3	24,4
2,4455	2,9	23,4
2,446	-0,6	23,1
2,4465	-2,0	23,3
2,447	-2,1	23,7
2,4475	-1,6	24,0
2,448	-0,8	24,2
2,4485	-0,0	24,4
2,449	0,5	24,9
2,4495	0,2	25,7
2,45	-0,7	27,1
2,4505	-1,8	28,9
2,451	-3,3	30,8
2,4515	-6,0	32,6
2,452	-10,3	33,8
2,4525	-15,8	34,6
2,453	-21,0	35,0
2,4535	-24,8	35,3
2,454	-26,6	35,7
2,4545	-26,3	36,0
2,455	-24,8	36,1
2,4555	-22,7	35,6
2,456	-20,7	34,6
2,4565	-18,5	33,2
2,457	-15,3	31,9
2,4575	-10,1	31,5
2,458	-2,8	32,3
2,4585	5,4	34,4
2,459	13,1	37,1
2,4595	19,4	39,9
2,46	24,1	42,3
2,4605	27,4	44,1
2,461	30,2	45,6
2,4615	32,8	47,2
2,462	34,5	48,6
2,4625	34,0	49,1
2,463	30,3	48,3
2,4635	24,2	46,8
2,464	18,0	45,5
2,4645	13,4	44,8
2,465	10,7	44,3
2,4655	9,3	43,7
2,466	8,6	43,3
2,4665	8,2	43,0
2,467	7,3	42,5
2,4675	5,4	41,5
2,468	2,3	39,6
2,4685	-2,0	36,4
2,469	-6,9	32,1
2,4695	-11,4	27,3
2,47	-14,5	23,6
2,4705	-15,3	22,1
2,471	-14,4	22,7
2,4715	-13,3	24,7
2,472	-13,7	27,6
2,4725	-16,4	30,8
2,473	-20,7	34,1
2,4735	-24,8	37,1
2,474	-26,9	39,2
2,4745	-27,1	40,1
2,475	-26,1	39,6
2,4755	-25,3	37,9
2,476	-25,4	35,6
2,4765	-26,7	33,3
2,477	-28,8	32,0
2,4775	-30,5	32,5
2,478	-30,2	34,7
2,4785	-26,9	38,1
2,479	-20,9	42,0
2,4795	-13,2	45,7
2,48	-5,3	48,8
2,4805	0,8	50,4
2,481	3,3	49,8
2,4815	2,5	47,3
2,482	0,3	44,0
2,4825	-0,9	41,0
2,483	-0,2	38,9
2,4835	3,1	37,8
2,484	8,8	37,2
2,4845	15,8	36,8
2,485	22,1	36,5
2,4855	25,3	35,7
2,486	24,4	34,0
2,4865	19,3	31,3
2,487	11,5	27,8
2,4875	3,2	24,3
2,488	-4,3	21,2
2,4885	-10,5	18,8
2,489	-16,1	17,5
2,4895	-21,7	17,4
2,49	-26,8	18,8
2,4905	-30,5	21,1
2,491	-32,2	23,8
2,4915	-32,1	26,3
2,492	-31,1	28,0
2,4925	-29,6	29,3
2,493	-27,4	30,7
2,4935	-24,3	32,3
2,494	-20,7	34,3
2,4945	-16,8	36,3
2,495	-12,8	38,2
2,4955	-8,9	39,8
2,496	-5,3	40,9
2,4965	-2,1	41,5
2,497	1,1	41,5
2,4975	4,0	40,8
2,498	6,1	39,4
2,4985	7,0	38,1
2,499	6,9	37,3
2,4995	6,8	37,6
2,5	7,2	38,9
2,5005	8,3	40,6
2,501	8,9	41,9
2,5015	8,2	42,3
2,502	6,1	41,8
2,5025	3,4	40,6
2,503	1,0	38,8
2,5035	-1,1	36,8
2,504	-2,9	34,6
2,5045	-4,6	32,8
2,505	-5,9	31,7
2,5055	-6,3	31,8
2,506	-5,3	32,9
2,5065	-2,8	34,9
2,507	0,9	37,7
2,5075	5,3	40,8
2,508	9,2	43,7
2,5085	11,0	45,1
2,509	9,8	44,7
2,5095	6,3	42,7
2,51	2,1	40,0
2,5105	-1,3	37,5
2,511	-3,2	35,5
2,5115	-3,6	34,7
2,512	-3,4	35,3
2,5125	-4,3	37,4
2,513	-7,1	40,3
2,5135	-10,7	43,3
2,514	-13,7	45,8
2,5145	-15,3	47,1
2,515	-15,9	46,6
2,5155	-16,3	44,3
2,516	-16,0	41,3
2,5165	-14,7	39,0
2,517	-11,8	38,2
2,5175	-8,4	38,6
2,518	-5,5	39,0
2,5185	-3,9	38,6
2,519	-3,3	37,2
2,5195	-3,2	35,2
2,52	-2,8	33,6
2,5205	-2,0	32,8
2,521	-0,8	32,8
2,5215	0,1	32,8
2,522	0,4	32,6
2,5225	-0,0	32,5
2,523	-1,2	32,9
2,5235	-3,1	34,1
2,524	-5,9	35,5
2,5245	-9,9	36,7
2,525	-14,8	37,2
2,5255	-19,7	36,8
2,526	-23,3	35,4
2,5265	-25,3	33,4
2,527	-26,3	31,7
2,5275	-26,8	31,1
2,528	-27,1	31,6
2,5285	-26,9	33,0
2,529	-25,9	34,5
2,5295	-23,9	35,6
2,53	-20,8	36,0
2,5305	-16,9	35,9
2,531	-12,4	36,2
2,5315	-7,9	37,1
2,532	-4,2	38,3
2,5325	-2,7	39,0
2,533	-4,1	38,6
2,5335	-7,8	37,0
2,534	-12,4	34,7
2,5345	-15,8	32,7
2,535	-16,8	31,8
2,5355	-15,4	32,0
2,536	-12,5	32,7
2,5365	-9,7	33,3
2,537	-7,8	33,4
2,5375	-6,7	32,8
2,538	-6,0	31,8
2,5385	-5,2	31,2
2,539	-4,1	31,3
2,5395	-2,3	31,8
2,54	0,3	32,9
2,5405	3,6	34,4
2,541	7,5	35,8
2,5415	11,6	36,8
2,542	15,3	37,3
2,5425	18,4	37,5
2,543	20,8	37,8
2,5435	23,0	38,5
2,544	24,5	39,3
2,5445	24,3	40,2
2,545	21,7	40,7
2,5455	16,5	40,8
2,546	9,5	40,9
2,5465	2,0	41,2
2,547	-4,8	41,7
2,5475	-9,5	42,3
2,548	-11,7	43,3
2,5485	-12,3	44,3
2,549	-12,5	45,1
2,5495	-13,7	45,2
2,55	-15,6	44,4
2,5505	-18,1	43,0
2,551	-20,9	41,7
2,5515	-24,0	41,0
2,552	-27,3	41,2
2,5525	-29,9	41,9
2,553	-31,8	42,3
2,5535	-32,9	42,0
2,554	-32,6	40,7
2,5545	-30,6	38,8
2,555	-27,2	36,7
2,5555	-24,0	35,0
2,556	-22,4	33,8
2,5565	-22,8	33,0
2,557	-23,7	32,3
2,5575	-23,2	31,8
2,558	-20,0	31,3
2,5585	-13,4	31,0
2,559	-3,8	31,3
2,5595	7,3	32,1
2,56	17,7	33,5
2,5605	25,3	35,2
2,561	29,3	37,3
2,5615	30,7	39,4
2,562	30,3	41,0
2,5625	28,7	41,5
2,563	26,6	41,2
2,5635	25,3	40,7
2,564	24,7	40,8
2,5645	23,9	41,8
2,565	21,6	43,1
2,5655	17,2	43,8
2,566	11,7	43,6
2,5665	6,2	42,5
2,567	1,4	40,9
2,5675	-2,1	38,4
2,568	-3,8	34,9
2,5685	-3,3	30,4
2,569	-1,6	25,8
2,5695	0,3	22,3
2,57	1,4	20,8
2,5705	1,9	21,1
2,571	2,1	22,4
2,5715	1,8	23,7
2,572	0,8	24,5
2,5725	-1,0	25,1
2,573	-2,5	25,8
2,5735	-2,9	26,8
2,574	-1,8	28,1
2,5745	0,3	29,3
2,575	2,1	30,4
2,5755	2,8	31,4
2,576	2,1	32,3
2,5765	0,2	33,2
2,577	-1,9	34,2
2,5775	-3,2	35,3
2,578	-3,1	36,6
2,5785	-1,9	38,0
2,579	-0,6	39,4
2,5795	0,1	40,8
2,58	0,0	42,1
2,5805	-0,4	43,1
2,581	-0,4	43,8
2,5815	1,0	44,3
2,582	3,9	44,8
2,5825	7,6	45,8
2,583	11,0	47,0
2,5835	13,3	48,6
2,584	14,2	49,9
2,5845	13,8	50,7
2,585	12,7	50,7
2,5855	11,5	49,5
2,586	10,3	47,3
2,5865	9,5	44,8
2,587	8,8	42,4
2,5875	7,4	40,6
2,588	4,0	39,0
2,5885	-1,8	37,8
2,589	-9,3	36,9
2,5895	-17,3	36,2
2,59	-24,4	35,6
2,5905	-30,1	35,1
2,591	-34,2	34,8
2,5915	-36,2	34,4
2,592	-36,1	33,6
2,5925	-33,8	32,1
2,593	-29,8	30,2
2,5935	-25,3	28,7
2,594	-20,9	28,4
2,5945	-16,9	29,3
2,595	-12,4	30,8
2,5955	-7,0	31,8
2,596	-1,4	31,7
2,5965	2,7	30,6
2,597	4,5	29,2
2,5975	4,6	28,3
2,598	4,3	28,3
2,5985	4,3	29,0
2,599	4,5	29,8
2,5995	4,0	30,0
2,6	2,6	29,8
2,6005	0,7	29,3
2,601	-1,0	29,0
2,6015	-2,3	28,6
2,602	-3,1	27,7
2,6025	-3,7	26,1
2,603	-4,2	24,3
2,6035	-4,2	23,0
2,604	-3,9	22,6
2,6045	-4,2	22,9
2,605	-5,8	23,4
2,6055	-8,3	23,8
2,606	-10,7	24,3
2,6065	-11,7	25,0
2,607	-10,6	25,8
2,6075	-7,8	26,5
2,608	-4,2	26,9
2,6085	-0,7	27,3
2,609	2,0	27,7
2,6095	3,7	28,5
2,61	4,9	29,5
2,6105	5,8	30,7
2,611	6,4	31,9
2,6115	6,5	32,8
2,612	5,9	33,1
2,6125	4,9	33,1
2,613	3,4	32,9
2,6135	1,8	32,9
2,614	0,4	33,6
2,6145	-0,4	34,7
2,615	-0,8	35,8
2,6155	-1,1	36,4
2,616	-0,9	36,4
2,6165	0,4	35,6
2,617	3,0	34,2
2,6175	6,1	32,7
2,618	8,2	31,4
2,6185	8,4	30,5
2,619	6,8	29,8
2,6195	4,3	29,2
2,62	1,3	28,9
2,6205	-1,5	29,0
2,621	-4,0	29,0
2,6215	-5,8	28,6
2,622	-7,0	27,7
2,6225	-7,2	26,8
2,623	-5,8	27,0
2,6235	-3,0	28,7
2,624	0,3	31,6
2,6245	3,1	34,9
2,625	4,9	37,8
2,6255	5,5	39,6
2,626	5,3	39,9
2,6265	4,7	38,8
2,627	4,1	36,8
2,6275	3,9	34,7
2,628	4,3	33,2
2,6285	4,9	32,5
2,629	5,1	32,9
2,6295	4,5	34,0
2,63	3,1	35,4
2,6305	1,3	36,8
2,631	-0,2	37,7
2,6315	-0,9	37,9
2,632	-0,5	37,3
2,6325	1,0	36,5
2,633	2,9	36,0
2,6335	4,6	36,0
2,634	6,2	36,7
2,6345	8,0	37,7
2,635	10,7	38,5
2,6355	14,0	38,6
2,636	17,0	38,1
2,6365	18,3	37,6
2,637	17,4	37,3
2,6375	14,4	37,4
2,638	10,4	37,6
2,6385	6,3	37,6
2,639	2,9	37,2
2,6395	0,2	36,1
2,64	-2,2	34,7
2,6405	-4,5	33,2
2,641	-7,0	31,8
2,6415	-9,5	30,7
2,642	-11,3	29,8
2,6425	-11,2	29,2
2,643	-8,6	29,3
2,6435	-4,4	29,7
2,644	-0,1	30,4
2,6445	2,9	30,9
2,645	3,8	31,3
2,6455	3,1	31,5
2,646	1,5	32,0
2,6465	-0,1	32,9
2,647	-1,1	33,9
2,6475	-2,1	34,3
2,648	-3,8	33,8
2,6485	-6,1	32,4
2,649	-8,3	30,8
2,6495	-9,9	29,7
2,65	-10,7	29,4
2,6505	-11,0	29,8
2,651	-10,9	30,8
2,6515	-10,3	32,3
2,652	-8,7	34,5
2,6525	-6,2	36,9
2,653	-3,3	39,1
2,6535	-0,6	40,9
2,654	1,3	41,8
2,6545	2,3	41,9
2,655	2,3	41,6
2,6555	1,4	41,6
2,656	-0,2	42,1
2,6565	-1,6	42,9
2,657	-2,1	43,5
2,6575	-1,0	43,8
2,658	1,6	44,1
2,6585	4,6	44,3
2,659	6,9	43,8
2,6595	7,3	42,2
2,66	5,6	39,5
2,6605	1,9	36,3
2,661	-3,5	33,8
2,6615	-10,2	32,8
2,662	-17,5	33,2
2,6625	-25,0	34,0
2,663	-32,4	34,1
2,6635	-39,0	33,1
2,664	-43,4	31,2
2,6645	-44,2	29,4
2,665	-41,2	28,5
2,6655	-35,3	28,8
2,666	-28,2	29,8
2,6665	-21,3	30,8
2,667	-14,9	31,2
2,6675	-8,6	31,1
2,668	-2,1	30,8
2,6685	4,5	30,8
2,669	10,3	30,7
2,6695	14,8	30,5
2,67	17,8	30,0
2,6705	19,2	29,2
2,671	19,5	28,4
2,6715	19,0	27,9
2,672	18,3	28,0
2,6725	18,4	28,9
2,673	19,2	30,8
2,6735	19,9	33,3
2,674	19,3	35,6
2,6745	17,0	36,5
2,675	14,1	35,5
2,6755	11,1	32,8
2,676	7,9	29,2
2,6765	4,2	25,8
2,677	0,5	23,8
2,6775	-2,5	23,8
2,678	-4,3	25,6
2,6785	-5,2	28,1
2,679	-5,5	30,6
2,6795	-5,9	32,5
2,68	-6,5	33,6
2,6805	-6,8	34,0
2,681	-6,9	33,9
2,6815	-7,1	33,5
2,682	-7,5	32,7
2,6825	-8,0	31,8
2,683	-8,3	30,7
2,6835	-8,8	29,9
2,684	-10,2	29,3
2,6845	-12,8	29,0
2,685	-15,7	29,2
2,6855	-17,6	29,8
2,686	-17,5	30,6
2,6865	-15,9	31,0
2,687	-13,2	30,8
2,6875	-10,1	30,5
2,688	-6,7	30,5
2,6885	-3,2	31,2
2,689	1,3	32,6
2,6895	7,3	34,8
2,69	14,7	37,4
2,6905	21,7	39,6
2,691	25,8	40,8
2,6915	25,4	40,8
2,692	20,5	39,8
2,6925	13,2	38,8
2,693	5,3	38,0
2,6935	-1,7	37,6
2,694	-7,2	37,5
2,6945	-11,7	38,0
2,695	-15,8	39,1
2,6955	-20,2	40,4
2,696	-24,4	41,6
2,6965	-27,2	41,9
2,697	-27,3	41,1
2,6975	-24,5	39,2
2,698	-19,5	36,6
2,6985	-13,9	33,6
2,699	-9,2	30,3
2,6995	-6,2	26,8
2,7	-4,9	23,6
2,7005	-4,6	21,2
2,701	-4,4	19,9
2,7015	-4,2	19,8
2,702	-3,8	20,1
2,7025	-3,8	20,6
2,703	-4,5	21,0
2,7035	-5,9	21,4
2,704	-7,3	21,9
2,7045	-7,6	22,7
2,705	-6,9	23,9
2,7055	-5,7	25,8
2,706	-4,6	28,2
2,7065	-3,8	30,5
2,707	-3,4	32,4
2,7075	-3,6	33,1
2,708	-3,9	32,4
2,7085	-3,9	30,9
2,709	-4,1	29,3
2,7095	-5,8	28,3
2,71	-9,8	28,3
2,7105	-15,6	29,4
2,711	-21,3	31,5
2,7115	-25,7	33,9
2,712	-28,2	35,9
2,7125	-29,3	37,5
2,713	-29,5	38,8
2,7135	-28,0	39,9
2,714	-24,1	40,8
2,7145	-17,9	41,6
2,715	-10,6	41,7
2,7155	-3,7	41,1
2,716	2,5	40,3
2,7165	7,8	40,1
2,717	11,7	40,6
2,7175	13,6	41,5
2,718	13,1	41,9
2,7185	10,5	41,7
2,719	7,3	41,1
2,7195	4,8	40,9
2,72	4,0	41,3
2,7205	4,2	41,6
2,721	4,5	40,9
2,7215	4,0	38,5
2,722	2,6	34,5
2,7225	0,3	29,8
2,723	-2,1	25,7
2,7235	-4,0	23,0
2,724	-5,2	21,9
2,7245	-5,4	21,8
2,725	-4,4	21,8
2,7255	-1,8	21,7
2,726	2,3	21,6
2,7265	6,8	21,5
2,727	10,6	21,9
2,7275	12,9	23,1
2,728	13,6	24,9
2,7285	12,9	27,2
2,729	11,1	29,6
2,7295	9,1	31,7
2,73	8,1	33,1
2,7305	8,5	33,4
2,731	10,5	32,8
2,7315	13,5	31,6
2,732	17,0	30,4
2,7325	20,1	29,8
2,733	21,7	29,8
2,7335	21,1	30,1
2,734	18,3	30,6
2,7345	13,6	30,9
2,735	8,0	30,8
2,7355	2,6	30,1
2,736	-1,5	29,3
2,7365	-3,7	28,8
2,737	-4,2	29,0
2,7375	-3,8	29,4
2,738	-3,5	29,7
2,7385	-3,4	29,6
2,739	-3,5	29,8
2,7395	-3,8	30,2
2,74	-4,7	30,5
2,7405	-6,5	30,0
2,741	-9,3	28,3
2,7415	-12,9	25,9
2,742	-16,6	23,5
2,7425	-19,3	21,8
2,743	-20,1	21,6
2,7435	-18,5	22,9
2,744	-15,3	25,3
2,7445	-11,6	28,1
2,745	-8,8	30,7
2,7455	-7,4	32,6
2,746	-6,7	33,3
2,7465	-6,1	32,8
2,747	-5,3	31,2
2,7475	-4,5	29,1
2,748	-4,0	27,6
2,7485	-3,9	27,8
2,749	-4,1	29,8
2,7495	-3,9	32,9
2,75	-2,8	36,1
2,7505	-0,8	38,7
2,751	1,9	40,1
2,7515	4,7	39,9
2,752	7,2	38,2
2,7525	9,2	35,2
2,753	10,3	31,5
2,7535	10,7	27,8
2,754	10,7	24,5
2,7545	10,8	21,9
2,755	11,1	20,0
2,7555	11,5	18,8
2,756	11,8	18,5
2,7565	12,1	19,1
2,757	12,0	20,5
2,7575	11,8	22,4
2,758	11,9	24,3
2,7585	12,6	25,8
2,759	13,8	26,8
2,7595	14,7	27,5
2,76	14,3	28,2
2,7605	12,2	29,0
2,761	8,6	30,2
2,7615	4,9	31,2
2,762	2,1	32,0
2,7625	-0,0	32,5
2,763	-1,9	32,8
2,7635	-3,9	33,2
2,764	-5,5	33,7
2,7645	-6,2	34,2
2,765	-6,1	34,6
2,7655	-5,5	34,7
2,766	-4,9	34,7
2,7665	-4,0	34,6
2,767	-2,8	34,3
2,7675	-1,2	33,9
2,768	0,5	33,1
2,7685	1,9	31,7
2,769	2,4	29,6
2,7695	1,7	27,1
2,77	-1,4	24,7
2,7705	-7,7	22,8
2,771	-16,7	21,1
2,7715	-26,3	19,6
2,772	-33,8	18,5
2,7725	-37,3	18,3
2,773	-36,5	19,1
2,7735	-31,8	20,8
2,774	-24,2	23,2
2,7745	-14,8	25,5
2,775	-5,3	27,2
2,7755	3,0	27,5
2,776	9,2	26,6
2,7765	13,1	25,2
2,777	15,6	24,3
2,7775	17,6	24,8
2,778	19,8	26,9
2,7785	22,3	30,1
2,779	24,0	33,5
2,7795	24,3	36,4
2,78	23,1	38,5
2,7805	21,2	39,7
2,781	18,7	40,3
2,7815	15,4	40,8
2,782	11,7	41,2
2,7825	9,1	41,4
2,783	9,1	41,1
2,7835	11,4	40,1
2,784	14,2	38,7
2,7845	15,3	37,2
2,785	13,7	35,9
2,7855	9,3	34,3
2,786	2,7	32,1
2,7865	-5,1	28,9
2,787	-12,3	25,2
2,7875	-17,7	21,8
2,788	-20,7	19,4
2,7885	-22,0	18,4
2,789	-22,1	18,5
2,7895	-21,2	19,0
2,79	-19,5	19,5
2,7905	-17,3	19,9
2,791	-15,1	20,0
2,7915	-13,1	20,2
2,792	-11,0	20,4
2,7925	-8,7	20,8
2,793	-6,3	21,1
2,7935	-3,6	21,3
2,794	0,0	22,3
2,7945	5,9	24,6
2,795	14,5	27,9
2,7955	23,8	31,6
2,796	30,6	34,2
2,7965	32,9	35,1
2,797	31,1	34,0
2,7975	27,3	31,5
2,798	23,4	28,4
2,7985	20,3	25,5
2,799	18,1	23,3
2,7995	16,5	21,9
2,8	14,8	21,5
2,8005	12,3	21,8
2,801	8,6	23,1
2,8015	4,7	25,3
2,802	1,5	28,4
2,8025	-0,3	31,8
2,803	-1,6	34,3
2,8035	-2,9	35,3
2,804	-4,3	34,6
2,8045	-5,5	32,9
2,805	-6,0	30,9
2,8055	-6,0	29,1
2,806	-5,7	28,0
2,8065	-4,8	27,8
2,807	-2,8	28,6
2,8075	0,7	30,2
2,808	5,4	32,2
2,8085	10,4	34,0
2,809	14,4	35,4
2,8095	17,2	36,3
2,81	18,6	36,8
2,8105	18,8	37,2
2,811	18,8	37,4
2,8115	19,6	37,1
2,812	20,9	35,5
2,8125	21,2	32,0
2,813	19,5	26,9
2,8135	16,3	21,2
2,814	12,4	16,3
2,8145	8,6	13,0
2,815	4,8	11,6
2,8155	1,4	11,7
2,816	-1,3	12,9
2,8165	-3,1	14,8
2,817	-3,8	17,1
2,8175	-3,6	19,5
2,818	-2,9	21,6
2,8185	-2,3	23,2
2,819	-2,0	24,1
2,8195	-2,0	24,3
2,82	-1,8	23,9
2,8205	-0,9	23,3
2,821	0,7	23,0
2,8215	2,9	23,3
2,822	5,3	24,5
2,8225	7,4	26,4
2,823	9,1	28,7
2,8235	10,1	30,8
2,824	10,1	32,4
2,8245	9,0	33,5
2,825	7,6	34,4
2,8255	6,8	35,6
2,826	7,8	37,1
2,8265	10,0	38,2
2,827	12,2	38,1
2,8275	13,3	36,8
2,828	13,2	35,1
2,8285	12,3	34,1
2,829	11,2	34,4
2,8295	9,8	35,6
2,83	8,3	36,8
2,8305	7,3	37,3
2,831	6,8	37,1
2,8315	6,8	36,4
2,832	7,1	36,0
2,8325	6,7	36,0
2,833	5,0	36,3
2,8335	2,4	36,6
2,834	-0,2	36,4
2,8345	-1,8	36,1
2,835	-2,4	35,8
2,8355	-2,7	35,3
2,836	-2,8	34,3
2,8365	-3,1	32,4
2,837	-3,3	29,9
2,8375	-2,9	27,7
2,838	-2,4	25,9
2,8385	-1,9	24,6
2,839	-1,3	23,5
2,8395	0,0	22,5
2,84	2,3	21,8
2,8405	5,1	21,7
2,841	7,6	22,1
2,8415	8,7	22,4
2,842	7,9	22,0
2,8425	5,5	20,8
2,843	2,5	18,9
2,8435	-0,3	16,6
2,844	-2,0	14,2
2,8445	-2,3	12,2
2,845	-1,2	11,3
2,8455	0,8	12,0
2,846	3,3	14,2
2,8465	5,6	17,3
2,847	7,6	20,7
2,8475	9,3	23,3
2,848	11,1	25,0
2,8485	13,2	25,9
2,849	15,5	26,3
2,8495	17,9	26,4
2,85	19,9	26,7
2,8505	21,3	27,2
2,851	21,6	28,0
2,8515	21,1	29,2
2,852	19,7	30,6
2,8525	17,6	32,1
2,853	14,9	33,3
2,8535	11,8	34,1
2,854	8,3	34,3
2,8545	4,1	34,3
2,855	-0,8	34,5
2,8555	-5,8	35,0
2,856	-10,2	35,7
2,8565	-13,5	36,1
2,857	-15,8	35,8
2,8575	-16,6	34,6
2,858	-15,4	33,1
2,8585	-11,9	31,7
2,859	-7,0	30,9
2,8595	-2,1	30,4
2,86	1,6	29,9
2,8605	3,9	29,6
2,861	5,6	29,8
2,8615	7,5	30,6
2,862	10,3	31,5
2,8625	13,7	32,2
2,863	16,0	31,9
2,8635	16,1	30,4
2,864	13,9	27,8
2,8645	11,2	24,8
2,865	9,5	22,3
2,8655	8,8	20,7
2,866	8,3	19,8
2,8665	7,1	19,5
2,867	5,9	19,7
2,8675	6,0	20,4
2,868	8,4	21,3
2,8685	12,0	21,8
2,869	14,6	21,3
2,8695	14,9	20,3
2,87	13,3	19,4
2,8705	11,1	19,3
2,871	8,5	20,0
2,8715	5,3	21,3
2,872	0,8	22,9
2,8725	-4,1	24,5
2,873	-8,0	25,9
2,8735	-9,4	27,0
2,874	-8,0	27,8
2,8745	-3,9	28,5
2,875	2,0	29,4
2,8755	8,4	30,5
2,876	14,1	31,9
2,8765	18,6	33,4
2,877	22,0	35,0
2,8775	24,5	36,4
2,878	25,6	37,3
2,8785	25,5	37,7
2,879	24,3	37,6
2,8795	23,1	37,5
2,88	22,7	38,0
2,8805	23,5	39,2
2,881	24,9	40,5
2,8815	25,1	41,3
2,882	22,8	41,2
2,8825	17,5	40,4
2,883	9,5	38,9
2,8835	0,0	36,4
2,884	-9,3	32,3
2,8845	-16,1	26,7
2,885	-19,6	20,6
2,8855	-19,5	15,6
2,886	-16,5	13,1
2,8865	-11,8	13,3
2,887	-6,8	15,6
2,8875	-2,6	18,4
2,888	0,2	20,7
2,8885	1,6	22,2
2,889	2,5	23,0
2,8895	3,7	23,6
2,89	5,6	24,2
2,8905	7,7	24,8
2,891	9,2	26,0
2,8915	9,4	27,7
2,892	8,3	29,7
2,8925	6,6	31,2
2,893	4,8	31,6
2,8935	3,6	30,3
2,894	3,2	27,7
2,8945	3,3	24,3
2,895	4,0	21,0
2,8955	5,4	18,5
2,896	7,7	17,3
2,8965	10,4	17,6
2,897	13,4	19,1
2,8975	16,4	21,2
2,898	19,2	23,0
2,8985	21,3	24,3
2,899	22,3	25,1
2,8995	22,7	25,4
2,9	22,8	25,6
2,9005	22,8	25,8
2,901	22,7	26,0
2,9015	22,4	26,7
2,902	22,8	27,4
2,9025	24,9	27,8
2,903	28,3	27,7
2,9035	30,9	27,0
2,904	30,6	26,0
2,9045	27,2	25,3
2,905	22,4	25,6
2,9055	18,2	27,0
2,906	15,7	29,2
2,9065	14,5	31,7
2,907	13,4	33,6
2,9075	12,3	34,9
2,908	11,5	35,5
2,9085	11,8	35,8
2,909	13,1	35,7
2,9095	14,4	34,6
2,91	14,8	32,8
2,9105	14,0	30,8
2,911	12,7	29,7
2,9115	11,7	30,0
2,912	11,7	31,5
2,9125	12,5	33,8
2,913	13,4	36,1
2,9135	13,8	37,9
2,914	13,3	38,5
2,9145	11,9	37,4
2,915	10,1	34,8
2,9155	8,4	31,4
2,916	7,7	27,9
2,9165	7,8	25,3
2,917	8,5	23,6
2,9175	9,3	22,9
2,918	10,0	22,8
2,9185	10,3	22,8
2,919	10,3	22,7
2,9195	9,6	22,4
2,92	8,7	22,3
2,9205	8,0	22,5
2,921	7,9	22,8
2,9215	8,5	23,3
2,922	9,3	23,4
2,9225	9,7	23,3
2,923	9,3	23,1
2,9235	8,3	23,0
2,924	6,9	23,0
2,9245	5,2	23,8
2,925	3,2	25,6
2,9255	1,1	28,2
2,926	-0,9	30,9
2,9265	-2,5	33,2
2,927	-3,3	34,9
2,9275	-3,1	36,4
2,928	-1,6	38,0
2,9285	0,6	39,6
2,929	2,8	40,7
2,9295	4,4	40,8
2,93	5,8	39,9
2,9305	7,1	38,5
2,931	8,4	37,0
2,9315	9,7	35,8
2,932	11,0	35,0
2,9325	12,0	35,0
2,933	11,8	35,5
2,9335	9,5	36,3
2,934	4,8	36,7
2,9345	-2,1	36,0
2,935	-9,6	34,2
2,9355	-15,9	31,6
2,936	-19,8	28,8
2,9365	-20,9	26,7
2,937	-19,5	25,8
2,9375	-16,3	25,8
2,938	-12,2	26,3
2,9385	-8,4	26,5
2,939	-5,2	26,3
2,9395	-2,2	25,9
2,94	0,5	25,8
2,9405	2,7	26,3
2,941	4,3	27,4
2,9415	5,7	28,9
2,942	6,9	30,7
2,9425	7,3	32,3
2,943	6,4	33,1
2,9435	3,7	33,0
2,944	-1,0	32,0
2,9445	-6,7	30,2
2,945	-12,3	27,8
2,9455	-16,4	24,9
2,946	-18,0	21,9
2,9465	-16,9	19,2
2,947	-13,8	17,1
2,9475	-9,7	15,9
2,948	-5,5	15,6
2,9485	-1,8	15,9
2,949	0,3	16,8
2,9495	-0,3	18,0
2,95	-3,6	19,5
2,9505	-8,0	21,3
2,951	-11,9	23,2
2,9515	-14,8	25,1
2,952	-17,3	26,3
2,9525	-20,0	26,2
2,953	-22,8	24,6
2,9535	-24,9	22,2
2,954	-25,6	19,9
2,9545	-24,6	18,6
2,955	-22,0	18,3
2,9555	-18,5	19,3
2,956	-14,8	21,1
2,9565	-11,5	23,5
2,957	-9,0	25,6
2,9575	-7,2	26,8
2,958	-5,9	26,9
2,9585	-4,8	26,2
2,959	-3,8	25,2
2,9595	-2,5	24,6
2,96	-1,3	24,8
2,9605	-0,0	25,8
2,961	1,8	27,6
2,9615	5,6	29,7
2,962	12,3	31,5
2,9625	20,8	32,6
2,963	28,2	32,3
2,9635	31,1	30,6
2,964	28,4	28,0
2,9645	21,3	25,3
2,965	12,4	23,0
2,9655	3,9	21,3
2,966	-3,0	20,5
2,9665	-7,6	20,5
2,967	-9,7	21,3
2,9675	-9,3	22,3
2,968	-7,0	23,0
2,9685	-3,0	23,6
2,969	2,2	24,4
2,9695	7,4	25,7
2,97	11,6	27,2
2,9705	13,9	28,4
2,971	14,3	29,3
2,9715	13,0	29,6
2,972	10,5	29,2
2,9725	6,7	27,6
2,973	1,5	24,4
2,9735	-4,8	19,9
2,974	-10,8	15,2
2,9745	-15,7	11,2
2,975	-18,6	8,5
2,9755	-19,5	6,9
2,976	-18,9	6,3
2,9765	-17,5	6,5
2,977	-15,9	7,7
2,9775	-14,4	9,7
2,978	-13,3	12,4
2,9785	-12,4	15,9
2,979	-11,5	19,7
2,9795	-10,7	23,3
2,98	-10,0	25,7
2,9805	-10,0	26,8
2,981	-10,4	27,0
2,9815	-11,0	26,9
2,982	-11,1	26,7
2,9825	-10,8	26,3
2,983	-9,9	25,9
2,9835	-8,7	25,5
2,984	-8,3	25,0
2,9845	-10,2	24,2
2,985	-14,3	23,2
2,9855	-19,3	22,3
2,986	-23,4	21,9
2,9865	-25,8	22,0
2,987	-26,3	22,6
2,9875	-24,5	23,8
2,988	-20,7	25,4
2,9885	-15,8	27,2
2,989	-11,8	28,6
2,9895	-9,1	29,2
2,99	-6,4	28,6
2,9905	-1,1	27,0
2,991	8,2	25,2
2,9915	20,4	23,8
2,992	32,6	23,1
2,9925	41,3	22,5
2,993	45,2	21,9
2,9935	44,5	21,5
2,994	40,6	21,9
2,9945	34,6	23,1
2,995	27,7	24,6
2,9955	21,3	25,5
2,996	15,9	25,4
2,9965	12,0	24,7
2,997	10,1	23,7
2,9975	10,9	22,6
2,998	14,5	21,3
2,9985	19,3	19,9
2,999	23,0	18,7
2,9995	24,3	18,4
3	23,0	19,1
3,0005	19,6	20,4
3,001	15,3	21,9
3,0015	10,9	23,0
3,002	7,4	23,9
3,0025	5,3	24,7
3,003	4,4	25,2
3,0035	3,8	25,2
3,004	2,7	24,2
3,0045	1,1	22,5
3,005	0,2	20,9
3,0055	1,8	20,1
3,006	6,6	20,7
3,0065	12,4	22,3
3,007	15,8	23,8
3,0075	14,7	24,2
3,008	9,7	23,6
3,0085	3,1	22,6
3,009	-2,9	21,7
3,0095	-7,3	21,2
3,01	-10,0	20,9
3,0105	-11,3	20,9
3,011	-11,3	21,3
3,0115	-9,9	21,9
3,012	-7,2	22,6
3,0125	-3,4	23,6
3,013	0,3	24,8
3,0135	2,8	26,1
3,014	3,6	27,1
3,0145	3,2	27,3
3,015	2,1	26,8
3,0155	1,4	26,0
3,016	1,7	25,3
3,0165	3,0	25,1
3,017	5,0	25,4
3,0175	7,1	25,9
3,018	8,8	26,2
3,0185	10,6	26,5
3,019	12,8	27,0
3,0195	15,3	27,9
3,02	17,2	28,7
3,0205	17,9	28,8
3,021	17,2	27,5
3,0215	15,3	24,5
3,022	12,7	20,3
3,0225	9,5	15,8
3,023	6,3	12,1
3,0235	3,5	9,8
3,024	1,8	9,3
3,0245	1,8	10,4
3,025	3,6	12,6
3,0255	6,5	15,5
3,026	9,3	18,6
3,0265	10,9	21,7
3,027	10,4	24,5
3,0275	8,3	26,5
3,028	5,7	27,5
3,0285	3,8	27,6
3,029	3,3	27,3
3,0295	4,3	26,9
3,03	6,6	26,4
3,0305	9,7	26,0
3,031	13,2	25,8
3,0315	16,7	26,0
3,032	19,8	26,3
3,0325	22,1	26,3
3,033	23,1	25,3
3,0335	22,7	23,5
3,034	21,0	21,3
3,0345	18,4	19,5
3,035	15,7	18,0
3,0355	13,3	16,5
3,036	11,3	14,7
3,0365	9,4	12,6
3,037	8,0	10,6
3,0375	7,3	9,5
3,038	7,3	9,5
3,0385	7,1	10,5
3,039	6,0	11,7
3,0395	3,7	12,7
3,04	1,0	13,7
3,0405	-1,0	15,0
3,041	-1,5	16,9
3,0415	-0,7	19,3
3,042	0,6	22,1
3,0425	1,3	24,8
3,043	0,7	26,8
3,0435	-1,1	28,0
3,044	-3,6	28,8
3,0445	-6,0	29,3
3,045	-7,3	29,9
3,0455	-7,1	30,4
3,046	-5,5	31,2
3,0465	-3,1	32,1
3,047	-0,5	33,1
3,0475	2,3	34,2
3,048	5,3	35,5
3,0485	8,4	37,2
3,049	11,6	39,1
3,0495	14,5	41,0
3,05	15,9	42,1
3,0505	14,2	41,6
3,051	9,0	39,1
3,0515	1,3	34,7
3,052	-6,6	29,2
3,0525	-12,3	23,6
3,053	-14,3	18,5
3,0535	-12,6	14,4
3,054	-8,0	11,9
3,0545	-1,8	11,6
3,055	4,5	13,4
3,0555	9,5	16,1
3,056	12,2	18,5
3,0565	12,6	19,8
3,057	11,9	20,0
3,0575	11,2	19,2
3,058	10,6	17,8
3,0585	10,0	16,4
3,059	9,1	15,2
3,0595	8,0	14,2
3,06	6,6	13,7
3,0605	5,0	14,0
3,061	3,2	15,4
3,0615	1,4	17,5
3,062	0,3	19,3
3,0625	0,6	20,4
3,063	1,9	21,2
3,0635	3,5	22,0
3,064	5,3	23,0
3,0645	7,8	24,2
3,065	11,8	25,7
3,0655	17,0	27,1
3,066	21,7	27,9
3,0665	24,0	27,7
3,067	23,7	26,8
3,0675	22,4	25,9
3,068	21,9	25,7
3,0685	22,9	26,2
3,069	24,8	26,8
3,0695	26,4	26,9
3,07	26,3	26,3
3,0705	24,2	25,4
3,071	20,7	24,3
3,0715	17,0	22,9
3,072	13,8	21,3
3,0725	11,5	19,7
3,073	10,5	18,8
3,0735	10,8	19,2
3,074	12,3	20,5
3,0745	14,3	21,9
3,075	16,3	22,7
3,0755	17,9	22,6
3,076	18,7	21,7
3,0765	18,8	20,5
3,077	18,2	19,8
3,0775	17,1	20,0
3,078	16,0	21,6
3,0785	15,0	24,3
3,079	14,0	27,3
3,0795	12,9	29,9
3,08	11,5	31,6
3,0805	9,1	32,2
3,081	5,1	31,6
3,0815	-0,5	30,3
3,082	-6,3	28,8
3,0825	-10,6	27,2
3,083	-12,7	25,4
3,0835	-13,2	23,3
3,084	-13,0	21,3
3,0845	-12,1	20,1
3,085	-9,9	20,0
3,0855	-6,1	20,5
3,086	-1,1	21,4
3,0865	4,3	22,0
3,087	9,0	22,2
3,0875	12,5	22,0
3,088	14,5	21,9
3,0885	15,4	22,0
3,089	15,3	22,3
3,0895	14,1	22,7
3,09	11,8	23,5
3,0905	8,7	24,6
3,091	5,4	25,8
3,0915	2,8	26,5
3,092	0,8	26,6
3,0925	-0,6	25,8
3,093	-1,8	24,1
3,0935	-2,4	21,9
3,094	-2,3	19,8
3,0945	-1,1	18,2
3,095	1,5	17,2
3,0955	5,3	16,7
3,096	9,8	16,7
3,0965	13,9	16,9
3,097	16,6	17,0
3,0975	17,7	16,9
3,098	17,6	16,8
3,0985	16,8	16,9
3,099	15,6	17,5
3,0995	14,4	18,5
3,1	13,1	19,7
3,1005	11,4	20,4
3,101	9,4	20,6
3,1015	7,2	20,0
3,102	5,4	19,2
3,1025	4,2	18,4
3,103	3,3	18,1
3,1035	2,2	18,1
3,104	1,2	18,3
3,1045	0,5	18,3
3,105	0,5	18,5
3,1055	1,3	18,9
3,106	2,4	19,9
3,1065	3,8	21,3
3,107	5,3	22,8
3,1075	7,1	24,4
3,108	9,0	25,9
3,1085	11,0	27,5
3,109	12,9	29,4
3,1095	14,4	31,3
3,11	14,5	32,8
3,1105	12,0	34,0
3,111	6,4	35,0
3,1115	-0,7	35,9
3,112	-7,0	36,9
3,1125	-10,9	37,7
3,113	-12,3	37,8
3,1135	-11,6	37,2
3,114	-9,2	35,7
3,1145	-5,3	33,7
3,115	-0,4	32,0
3,1155	4,9	30,7
3,116	9,8	29,8
3,1165	14,1	28,9
3,117	18,1	27,9
3,1175	22,3	26,3
3,118	26,2	23,6
3,1185	28,1	19,5
3,119	27,8	15,2
3,1195	26,3	12,0
3,12	25,4	11,0
3,1205	25,6	11,8
3,121	26,1	13,5
3,1215	25,9	14,8
3,122	23,9	14,7
3,1225	18,9	13,3
3,123	10,3	10,8
3,1235	-0,2	7,6
3,124	-9,2	4,3
3,1245	-14,3	1,6
3,125	-16,0	0,2
3,1255	-16,0	0,4
3,126	-15,5	2,0
3,1265	-14,9	4,8
3,127	-14,2	8,5
3,1275	-13,2	12,7
3,128	-11,7	17,2
3,1285	-9,2	21,3
3,129	-5,9	24,9
3,1295	-2,3	27,8
3,13	1,2	29,9
3,1305	4,7	31,7
3,131	8,4	33,5
3,1315	12,4	35,6
3,132	16,5	37,6
3,1325	20,1	39,0
3,133	23,1	39,7
3,1335	25,9	39,6
3,134	29,4	38,7
3,1345	34,4	37,0
3,135	39,9	34,5
3,1355	43,1	31,1
3,136	41,6	26,6
3,1365	35,7	21,1
3,137	28,2	15,7
3,1375	21,8	11,8
3,138	18,0	9,8
3,1385	16,4	9,6
3,139	15,9	10,3
3,1395	15,5	11,1
3,14	14,5	11,5
3,1405	12,9	11,4
3,141	10,7	11,1
3,1415	8,7	10,9
3,142	7,4	11,3
3,1425	7,1	12,4
3,143	7,4	14,2
3,1435	7,7	16,4
3,144	7,5	18,9
3,1445	7,0	21,7
3,145	6,2	24,7
3,1455	5,4	28,1
3,146	4,5	31,7
3,1465	3,4	35,0
3,147	2,3	37,5
3,1475	1,0	38,6
3,148	-0,6	38,4
3,1485	-3,0	37,1
3,149	-6,7	34,8
3,1495	-11,3	32,4
3,15	-15,9	30,6
3,1505	-19,3	29,9
3,151	-20,8	30,3
3,1515	-20,7	31,1
3,152	-20,2	31,4
3,1525	-20,2	30,3
3,153	-21,1	28,0
3,1535	-22,0	25,3
3,154	-22,1	23,1
3,1545	-20,4	22,3
3,155	-17,0	22,7
3,1555	-12,2	24,0
3,156	-6,1	25,8
3,1565	0,8	27,4
3,157	7,2	28,1
3,1575	11,4	27,3
3,158	12,3	25,4
3,1585	10,4	23,2
3,159	7,4	21,6
3,1595	4,7	20,9
3,16	2,5	21,3
3,1605	0,9	22,5
3,161	0,3	24,3
3,1615	1,5	26,5
3,162	3,9	28,5
3,1625	6,4	29,9
3,163	7,6	30,1
3,1635	7,4	29,4
3,164	6,8	28,5
3,1645	6,5	28,3
3,165	6,4	28,8
3,1655	6,2	29,6
3,166	5,3	30,2
3,1665	3,9	30,6
3,167	2,7	30,9
3,1675	2,0	30,9
3,168	2,3	30,5
3,1685	3,1	29,5
3,169	3,8	27,8
3,1695	3,3	25,5
3,17	1,2	23,5
3,1705	-2,8	22,0
3,171	-7,3	21,0
3,1715	-11,2	20,3
3,172	-13,5	19,7
3,1725	-14,0	19,3
3,173	-13,2	18,9
3,1735	-12,4	18,7
3,174	-12,3	18,6
3,1745	-12,6	18,5
3,175	-12,2	18,0
3,1755	-9,9	16,9
3,176	-5,5	16,1
3,1765	0,5	16,4
3,177	6,5	18,1
3,1775	10,8	20,7
3,178	11,8	23,5
3,1785	9,8	26,1
3,179	5,5	28,3
3,1795	0,5	29,8
3,18	-4,4	30,4
3,1805	-8,8	30,1
3,181	-12,5	29,7
3,1815	-15,6	29,4
3,182	-17,8	29,6
3,1825	-19,0	30,0
3,183	-19,5	30,5
3,1835	-19,0	30,8
3,184	-17,7	30,4
3,1845	-15,7	29,1
3,185	-13,4	27,1
3,1855	-11,2	24,9
3,186	-9,1	23,3
3,1865	-7,0	22,7
3,187	-5,3	22,8
3,1875	-4,0	23,3
3,188	-3,1	23,5
3,1885	-2,0	23,6
3,189	-1,0	23,7
3,1895	-1,5	24,1
3,19	-4,6	24,8
3,1905	-10,3	25,3
3,191	-16,9	25,5
3,1915	-22,6	25,3
3,192	-26,7	24,8
3,1925	-29,7	24,3
3,193	-31,7	23,9
3,1935	-32,2	23,7
3,194	-30,5	23,8
3,1945	-27,0	24,3
3,195	-22,6	25,5
3,1955	-17,9	27,3
3,196	-13,0	29,6
3,1965	-7,7	32,3
3,197	-1,9	35,0
3,1975	4,3	37,5
3,198	10,9	39,4
3,1985	17,3	40,5
3,199	23,1	40,7
3,1995	27,8	40,2
3,2	31,2	39,6
3,2005	33,3	39,5
3,201	34,1	39,9
3,2015	33,4	40,8
3,202	30,7	41,3
3,2025	25,6	40,5
3,203	18,2	37,9
3,2035	8,7	33,2
3,204	-1,9	27,1
3,2045	-12,1	20,5
3,205	-20,1	14,4
3,2055	-24,8	9,7
3,206	-25,9	6,5
3,2065	-24,5	5,4
3,207	-21,6	6,3
3,2075	-18,3	9,1
3,208	-15,4	12,7
3,2085	-13,2	16,5
3,209	-11,9	19,8
3,2095	-11,2	22,5
3,21	-10,9	24,6
3,2105	-11,2	26,1
3,211	-11,7	27,4
3,2115	-12,0	28,8
3,212	-11,3	30,4
3,2125	-9,3	32,5
3,213	-6,1	34,8
3,2135	-2,3	37,0
3,214	1,8	38,9
3,2145	6,0	40,3
3,215	10,1	40,8
3,2155	13,5	40,7
3,216	15,7	39,9
3,2165	16,1	39,2
3,217	15,3	38,8
3,2175	14,3	39,1
3,218	14,4	40,0
3,2185	16,1	41,5
3,219	18,6	42,7
3,2195	20,2	42,5
3,22	19,6	40,9
3,2205	16,8	38,5
3,221	12,7	35,8
3,2215	7,7	32,8
3,222	2,1	29,3
3,2225	-3,9	25,7
3,223	-9,6	22,3
3,2235	-14,2	19,4
3,224	-17,6	17,2
3,2245	-20,0	15,0
3,225	-21,9	12,8
3,2255	-23,3	10,9
3,226	-24,0	9,9
3,2265	-24,2	10,4
3,227	-24,1	12,3
3,2275	-23,8	15,3
3,228	-23,6	19,2
3,2285	-23,5	23,1
3,229	-23,5	26,8
3,2295	-23,4	29,7
3,23	-22,9	31,8
3,2305	-22,0	32,8
3,231	-20,6	33,0
3,2315	-18,8	32,6
3,232	-16,7	32,4
3,2325	-14,5	32,8
3,233	-12,5	33,9
3,2335	-10,9	35,6
3,234	-10,2	37,2
3,2345	-10,6	38,0
3,235	-12,1	37,6
3,2355	-14,2	36,3
3,236	-16,2	34,8
3,2365	-17,4	33,5
3,237	-17,4	32,3
3,2375	-15,6	31,3
3,238	-11,5	30,8
3,2385	-5,8	31,3
3,239	-0,4	32,3
3,2395	2,7	33,2
3,24	3,1	33,0
3,2405	1,8	31,9
3,241	0,5	31,0
3,2415	0,3	31,1
3,242	1,6	32,4
3,2425	3,8	34,6
3,243	6,3	37,1
3,2435	8,2	39,3
3,244	8,7	40,8
3,2445	7,1	41,3
3,245	3,6	40,4
3,2455	-0,7	38,4
3,246	-4,1	36,1
3,2465	-5,4	34,5
3,247	-4,8	33,7
3,2475	-3,5	33,4
3,248	-2,7	33,4
3,2485	-2,8	33,4
3,249	-3,8	33,4
3,2495	-5,8	33,3
3,25	-8,6	33,2
3,2505	-12,0	33,2
3,251	-15,7	33,2
3,2515	-20,0	32,7
3,252	-25,5	31,1
3,2525	-32,1	28,6
3,253	-38,3	25,7
3,2535	-43,2	23,1
3,254	-46,2	20,7
3,2545	-47,4	18,6
3,255	-47,0	16,9
3,2555	-45,3	16,1
3,256	-42,7	16,6
3,2565	-40,4	18,5
3,257	-39,2	21,5
3,2575	-39,3	25,2
3,258	-39,7	28,8
3,2585	-38,8	32,0
3,259	-35,7	34,6
3,2595	-30,8	36,3
3,26	-25,3	37,2
3,2605	-20,9	37,5
3,261	-19,1	38,0
3,2615	-19,8	39,2
3,262	-21,9	40,9
3,2625	-23,7	43,0
3,263	-24,3	45,2
3,2635	-23,3	46,8
3,264	-21,3	47,0
3,2645	-19,2	45,3
3,265	-17,4	41,8
3,2655	-15,8	38,0
3,266	-13,4	35,5
3,2665	-10,2	34,6
3,267	-6,2	34,4
3,2675	-1,9	34,0
3,268	2,7	33,2
3,2685	7,4	32,5
3,269	11,0	32,4
3,2695	12,5	32,3
3,27	12,0	31,7
3,2705	10,2	30,3
3,271	7,1	28,2
3,2715	2,7	25,7
3,272	-1,8	23,1
3,2725	-5,1	21,0
3,273	-6,8	19,7
3,2735	-8,2	19,4
3,274	-10,7	19,8
3,2745	-14,1	20,6
3,275	-17,3	21,5
3,2755	-19,4	22,5
3,276	-19,8	23,7
3,2765	-18,8	25,3
3,277	-17,1	27,5
3,2775	-15,2	30,3
3,278	-13,1	33,6
3,2785	-10,4	36,8
3,279	-7,2	39,5
3,2795	-4,7	41,1
3,28	-3,8	41,3
3,2805	-4,7	40,0
3,281	-6,2	37,8
3,2815	-6,9	35,7
3,282	-6,1	34,3
3,2825	-3,7	33,7
3,283	-0,6	33,4
3,2835	1,7	32,7
3,284	1,1	31,7
3,2845	-3,7	30,7
3,285	-11,8	30,2
3,2855	-20,3	30,1
3,286	-25,7	30,4
3,2865	-26,3	30,8
3,287	-23,9	31,2
3,2875	-20,7	31,7
3,288	-18,1	32,0
3,2885	-15,7	32,2
3,289	-12,4	32,3
3,2895	-8,4	32,8
3,29	-4,4	33,7
3,2905	-1,0	35,1
3,291	1,7	36,7
3,2915	4,0	38,4
3,292	6,1	40,1
3,2925	7,8	41,7
3,293	8,9	43,0
3,2935	8,9	43,5
3,294	7,1	43,0
3,2945	3,9	41,8
3,295	0,8	40,5
3,2955	-0,7	40,0
3,296	0,1	40,6
3,2965	3,0	42,0
3,297	7,4	43,3
3,2975	12,4	43,5
3,298	16,8	42,7
3,2985	19,8	41,7
3,299	21,1	41,4
3,2995	21,0	42,3
3,3	19,6	43,5
3,3005	16,8	44,4
3,301	13,4	44,7
3,3015	10,7	44,4
3,302	9,5	44,1
3,3025	9,7	44,0
3,303	10,7	44,2
3,3035	12,1	44,5
3,304	13,8	44,7
3,3045	15,6	44,5
3,305	16,7	44,2
3,3055	16,6	43,9
3,306	15,4	43,4
3,3065	13,7	42,4
3,307	11,9	40,6
3,3075	10,2	38,4
3,308	8,7	36,2
3,3085	7,3	34,3
3,309	5,7	32,6
3,3095	3,3	31,1
3,31	0,4	29,8
3,3105	-2,9	29,1
3,311	-6,2	28,5
3,3115	-9,3	27,6
3,312	-12,0	25,8
3,3125	-14,2	23,5
3,313	-15,9	21,5
3,3135	-17,5	20,2
3,314	-18,8	19,9
3,3145	-19,4	20,6
3,315	-19,2	22,0
3,3155	-18,4	24,0
3,316	-17,7	26,3
3,3165	-17,4	28,8
3,317	-17,2	31,4
3,3175	-16,5	33,8
3,318	-14,8	36,2
3,3185	-12,3	38,5
3,319	-9,1	40,6
3,3195	-5,9	42,3
3,32	-3,6	43,2
3,3205	-2,8	43,2
3,321	-3,5	42,3
3,3215	-5,1	40,9
3,322	-6,8	39,1
3,3225	-7,9	37,2
3,323	-7,7	35,7
3,3235	-5,5	35,0
3,324	-1,3	35,1
3,3245	3,8	35,3
3,325	8,0	35,1
3,3255	10,2	34,0
3,326	10,0	32,6
3,3265	8,0	31,5
3,327	4,9	31,1
3,3275	1,3	31,3
3,328	-2,7	31,4
3,3285	-6,8	30,8
3,329	-11,0	29,5
3,3295	-14,8	28,2
3,33	-18,3	27,5
3,3305	-21,4	27,8
3,331	-23,8	28,9
3,3315	-25,3	30,5
3,332	-26,1	31,9
3,3325	-26,5	33,2
3,333	-26,5	34,4
3,3335	-25,6	35,6
3,334	-23,7	36,9
3,3345	-20,8	38,3
3,335	-17,5	39,5
3,3355	-14,2	40,1
3,336	-11,1	40,2
3,3365	-8,2	39,9
3,337	-5,6	39,3
3,3375	-3,2	38,4
3,338	-1,2	37,4
3,3385	0,2	36,6
3,339	1,3	36,3
3,3395	3,2	36,8
3,34	6,3	37,9
3,3405	10,4	38,9
3,341	14,4	39,5
3,3415	16,7	39,3
3,342	16,3	38,6
3,3425	13,3	37,4
3,343	8,7	36,2
3,3435	3,4	35,2
3,344	-1,6	34,3
3,3445	-5,8	33,8
3,345	-8,4	33,9
3,3455	-9,3	34,7
3,346	-8,9	35,8
3,3465	-8,3	36,7
3,347	-8,3	36,7
3,3475	-9,2	36,3
3,348	-9,9	36,0
3,3485	-9,7	36,6
3,349	-8,5	37,9
3,3495	-7,5	39,3
3,35	-7,2	40,1
3,3505	-7,6	40,2
3,351	-8,6	39,8
3,3515	-9,5	39,3
3,352	-9,7	39,1
3,3525	-8,7	39,2
3,353	-6,4	39,6
3,3535	-3,6	39,6
3,354	-0,5	39,3
3,3545	3,6	39,4
3,355	8,5	40,4
3,3555	13,0	42,2
3,356	14,9	43,6
3,3565	13,1	43,5
3,357	8,2	41,6
3,3575	1,3	38,2
3,358	-6,8	33,8
3,3585	-14,5	29,3
3,359	-20,2	25,9
3,3595	-22,4	23,9
3,36	-21,3	23,2
3,3605	-18,5	23,3
3,361	-16,7	24,2
3,3615	-17,8	25,8
3,362	-22,0	28,3
3,3625	-27,8	31,8
3,363	-33,8	35,8
3,3635	-39,0	39,8
3,364	-42,8	42,8
3,3645	-44,5	44,4
3,365	-44,1	45,0
3,3655	-41,7	44,8
3,366	-38,5	44,4
3,3665	-36,5	43,9
3,367	-37,2	43,3
3,3675	-40,4	42,7
3,368	-44,3	41,9
3,3685	-46,7	41,2
3,369	-46,1	40,8
3,3695	-42,0	40,6
3,37	-35,0	40,7
3,3705	-26,0	40,9
3,371	-16,5	40,8
3,3715	-7,7	40,2
3,372	-0,1	39,2
3,3725	7,4	38,7
3,373	15,3	39,4
3,3735	22,1	41,0
3,374	24,8	42,1
3,3745	22,0	41,1
3,375	15,6	37,5
3,3755	8,7	31,8
3,376	3,7	25,8
3,3765	1,1	21,2
3,377	-0,7	19,3
3,3775	-3,9	20,4
3,378	-9,8	23,4
3,3785	-17,0	26,9
3,379	-22,7	29,8
3,3795	-24,5	31,3
3,38	-22,6	31,8
3,3805	-18,4	31,3
3,381	-13,7	30,3
3,3815	-9,8	29,3
3,382	-7,5	28,5
3,3825	-7,2	28,2
3,383	-7,8	28,7
3,3835	-8,2	29,8
3,384	-7,8	31,4
3,3845	-7,5	33,1
3,385	-8,3	34,5
3,3855	-10,5	35,4
3,386	-13,8	35,6
3,3865	-17,4	35,0
3,387	-20,4	33,8
3,3875	-21,7	32,5
3,388	-20,9	31,5
3,3885	-18,4	31,1
3,389	-14,8	31,5
3,3895	-11,0	32,7
3,39	-7,5	34,3
3,3905	-4,3	36,1
3,391	-1,4	37,8
3,3915	1,2	38,9
3,392	3,8	39,8
3,3925	6,1	40,4
3,393	8,2	40,9
3,3935	9,9	41,4
3,394	11,1	42,0
3,3945	12,1	43,1
3,395	13,2	44,8
3,3955	14,3	46,8
3,396	15,3	48,9
3,3965	16,2	50,5
3,397	16,1	51,3
3,3975	14,5	51,2
3,398	11,4	50,3
3,3985	7,9	49,1
3,399	5,0	47,9
3,3995	2,5	46,9
3,4	-0,6	45,7
3,4005	-5,2	43,8
3,401	-10,7	41,3
3,4015	-15,7	38,4
3,402	-18,7	35,7
3,4025	-18,8	33,5
3,403	-16,4	31,9
3,4035	-13,4	30,6
3,404	-11,1	29,1
3,4045	-10,1	27,8
3,405	-9,7	27,6
3,4055	-9,4	28,8
3,406	-9,3	31,2
3,4065	-10,5	33,7
3,407	-13,5	35,2
3,4075	-18,1	35,1
3,408	-23,0	33,9
3,4085	-27,0	32,6
3,409	-29,3	31,9
3,4095	-30,1	32,1
3,41	-30,5	33,0
3,4105	-30,8	34,4
3,411	-31,2	36,1
3,4115	-31,4	37,9
3,412	-31,5	39,4
3,4125	-31,8	40,0
3,413	-32,6	40,0
3,4135	-33,5	39,7
3,414	-34,0	39,1
3,4145	-33,5	38,0
3,415	-32,1	36,4
3,4155	-29,8	34,8
3,416	-25,7	33,9
3,4165	-18,9	34,4
3,417	-10,0	35,9
3,4175	-1,9	37,8
3,418	2,4	39,0
3,4185	2,1	39,6
3,419	-0,7	39,8
3,4195	-3,8	40,3
3,42	-6,0	40,8
3,4205	-7,2	41,3
3,421	-7,7	41,5
3,4215	-8,2	41,6
3,422	-9,1	41,9
3,4225	-10,2	42,6
3,423	-10,7	43,6
3,4235	-10,1	44,1
3,424	-8,5	43,6
3,4245	-6,7	41,7
3,425	-5,0	39,2
3,4255	-3,8	37,1
3,426	-3,1	35,9
3,4265	-2,9	35,4
3,427	-3,6	35,2
3,4275	-5,1	34,8
3,428	-7,3	34,4
3,4285	-9,9	34,1
3,429	-12,8	34,3
3,4295	-15,6	35,3
3,43	-18,5	36,9
3,4305	-21,5	38,6
3,431	-24,6	40,0
3,4315	-27,2	41,1
3,432	-28,6	41,6
3,4325	-28,6	41,4
3,433	-27,6	40,9
3,4335	-25,9	40,5
3,434	-23,2	40,6
3,4345	-19,8	41,3
3,435	-16,2	42,3
3,4355	-13,0	42,9
3,436	-9,8	42,8
3,4365	-5,7	42,0
3,437	-1,0	40,8
3,4375	3,0	39,4
3,438	5,1	37,8
3,4385	4,6	36,3
3,439	2,3	35,4
3,4395	-0,7	35,4
3,44	-3,9	35,8
3,4405	-7,3	36,1
3,441	-10,8	36,4
3,4415	-14,3	36,6
3,442	-17,6	36,3
3,4425	-20,7	35,4
3,443	-23,5	34,2
3,4435	-25,8	32,8
3,444	-27,1	31,5
3,4445	-27,1	30,8
3,445	-26,3	31,3
3,4455	-25,3	32,8
3,446	-24,2	35,4
3,4465	-23,3	38,5
3,447	-22,5	41,3
3,4475	-22,1	43,3
3,448	-22,3	43,9
3,4485	-23,4	43,0
3,449	-25,1	41,2
3,4495	-27,3	39,1
3,45	-29,3	37,3
3,4505	-30,6	36,3
3,451	-30,4	36,4
3,4515	-28,8	37,7
3,452	-26,4	39,7
3,4525	-24,3	41,3
3,453	-23,0	41,9
3,4535	-22,1	41,1
3,454	-21,0	39,6
3,4545	-19,3	38,1
3,455	-17,0	37,1
3,4555	-14,7	36,3
3,456	-12,4	35,8
3,4565	-9,7	35,3
3,457	-6,7	35,3
3,4575	-4,2	35,3
3,458	-3,0	34,7
3,4585	-3,4	33,7
3,459	-5,1	33,0
3,4595	-7,7	33,0
3,46	-10,6	33,8
3,4605	-13,4	34,9
3,461	-15,9	35,7
3,4615	-18,3	35,9
3,462	-20,6	35,7
3,4625	-22,8	35,7
3,463	-24,9	36,0
3,4635	-26,6	36,0
3,464	-27,7	35,4
3,4645	-27,4	34,3
3,465	-24,8	33,5
3,4655	-19,9	33,3
3,466	-13,8	33,9
3,4665	-8,8	34,7
3,467	-6,9	34,9
3,4675	-8,8	34,1
3,468	-13,5	32,2
3,4685	-18,8	29,8
3,469	-22,8	27,7
3,4695	-24,7	26,3
3,47	-24,7	25,8
3,4705	-24,2	26,0
3,471	-24,8	26,6
3,4715	-27,1	27,6
3,472	-30,2	28,8
3,4725	-32,3	30,4
3,473	-32,7	32,0
3,4735	-31,8	33,4
3,474	-30,8	34,3
3,4745	-29,9	34,3
3,475	-28,6	33,6
3,4755	-26,7	32,7
3,476	-24,1	32,2
3,4765	-21,1	32,4
3,477	-17,7	33,5
3,4775	-14,1	35,3
3,478	-10,4	37,3
3,4785	-6,8	39,4
3,479	-3,2	41,6
3,4795	0,1	43,9
3,48	1,7	46,1
3,4805	0,2	47,5
3,481	-5,3	47,8
3,4815	-13,4	47,0
3,482	-21,4	46,0
3,4825	-26,3	45,8
3,483	-26,6	46,9
3,4835	-22,7	48,9
3,484	-16,8	50,8
3,4845	-10,4	51,8
3,485	-4,0	51,8
3,4855	2,8	51,0
3,486	9,5	50,3
3,4865	15,2	49,8
3,487	18,3	49,8
3,4875	18,5	49,6
3,488	16,2	49,0
3,4885	12,7	48,2
3,489	9,6	47,2
3,4895	7,9	46,4
3,49	7,6	46,0
3,4905	7,7	45,8
3,491	7,2	45,4
3,4915	5,5	44,8
3,492	3,5	43,6
3,4925	2,7	41,9
3,493	4,2	39,5
3,4935	7,0	36,7
3,494	9,3	34,1
3,4945	9,3	32,2
3,495	7,1	31,1
3,4955	3,2	30,4
3,496	-1,2	29,6
3,4965	-5,1	28,5
3,497	-7,8	27,6
3,4975	-8,9	27,1
3,498	-8,8	27,3
3,4985	-7,8	28,2
3,499	-6,3	29,8
3,4995	-4,6	31,6
3,5	-3,4	33,1
3,5005	-3,1	33,9
3,501	-3,5	34,2
3,5015	-4,0	34,2
3,502	-4,2	34,2
3,5025	-3,9	34,4
3,503	-3,0	34,6
3,5035	-1,8	34,7
3,504	-0,5	34,8
3,5045	0,7	34,5
3,505	1,2	33,6
3,5055	1,0	32,1
3,506	0,4	30,6
3,5065	-0,1	29,6
3,507	0,2	29,6
3,5075	1,3	30,3
3,508	2,8	31,8
3,5085	4,2	33,6
3,509	5,1	35,4
3,5095	5,3	36,7
3,51	4,9	37,0
3,5105	3,6	36,4
3,511	1,7	35,3
3,5115	-0,8	34,3
3,512	-3,6	33,7
3,5125	-6,0	33,9
3,513	-7,7	35,3
3,5135	-8,4	37,4
3,514	-8,7	39,9
3,5145	-9,7	42,2
3,515	-12,7	43,2
3,5155	-18,1	42,8
3,516	-25,1	41,3
3,5165	-31,3	39,7
3,517	-34,8	38,6
3,5175	-35,4	38,0
3,518	-34,0	37,7
3,5185	-31,3	37,8
3,519	-27,7	38,2
3,5195	-23,5	38,6
3,52	-19,2	39,3
3,5205	-14,9	40,3
3,521	-10,4	41,6
3,5215	-5,2	43,1
3,522	0,5	44,7
3,5225	5,7	46,3
3,523	9,4	47,7
3,5235	11,4	48,8
3,524	12,3	49,7
3,5245	12,4	50,3
3,525	11,9	50,8
3,5255	11,4	51,3
3,526	12,2	51,7
3,5265	15,2	51,2
3,527	20,6	49,3
3,5275	26,6	46,4
3,528	31,3	43,5
3,5285	33,1	41,4
3,529	31,3	40,1
3,5295	26,0	39,1
3,53	17,5	37,4
3,5305	6,7	34,1
3,531	-4,6	29,0
3,5315	-14,2	22,8
3,532	-20,7	16,8
3,5325	-23,5	12,6
3,533	-23,7	11,0
3,5335	-22,2	12,3
3,534	-19,7	15,7
3,5345	-16,6	20,0
3,535	-13,4	24,3
3,5355	-10,8	27,7
3,536	-9,1	29,9
3,5365	-8,4	30,9
3,537	-8,6	31,0
3,5375	-9,5	30,6
3,538	-11,1	29,7
3,5385	-12,6	28,6
3,539	-13,6	28,0
3,5395	-13,9	28,2
3,54	-13,6	29,3
3,5405	-12,9	31,2
3,541	-12,3	33,2
3,5415	-12,9	34,8
3,542	-15,0	36,0
3,5425	-18,3	36,5
3,543	-21,1	36,5
3,5435	-21,8	36,1
3,544	-19,8	35,9
3,5445	-16,1	36,1
3,545	-13,0	36,4
3,5455	-11,4	36,6
3,546	-10,9	36,6
3,5465	-10,3	36,5
3,547	-9,3	36,4
3,5475	-8,0	36,5
3,548	-6,6	36,8
3,5485	-4,8	37,4
3,549	-1,9	38,0
3,5495	1,6	38,3
3,55	4,9	38,0
3,5505	6,4	36,8
3,551	5,7	35,1
3,5515	3,3	33,4
3,552	0,2	32,2
3,5525	-2,8	31,3
3,553	-5,8	30,5
3,5535	-8,2	29,5
3,554	-9,5	28,5
3,5545	-9,6	27,6
3,555	-9,2	26,7
3,5555	-9,5	26,0
3,556	-11,4	25,6
3,5565	-15,0	25,6
3,557	-19,6	25,8
3,5575	-23,7	26,3
3,558	-25,9	27,0
3,5585	-25,8	28,1
3,559	-23,7	29,7
3,5595	-20,8	31,2
3,56	-18,1	32,5
3,5605	-16,1	33,5
3,561	-14,8	34,1
3,5615	-14,3	34,2
3,562	-14,6	33,8
3,5625	-15,8	33,6
3,563	-17,6	33,7
3,5635	-19,2	34,0
3,564	-20,5	33,5
3,5645	-21,5	31,9
3,565	-22,6	29,3
3,5655	-23,9	26,6
3,566	-24,8	24,6
3,5665	-25,1	23,9
3,567	-25,1	24,2
3,5675	-25,7	25,1
3,568	-28,0	25,7
3,5685	-32,5	25,9
3,569	-38,7	25,8
3,5695	-44,7	25,3
3,57	-48,7	24,7
3,5705	-49,9	24,1
3,571	-48,5	23,3
3,5715	-44,9	22,7
3,572	-39,8	22,6
3,5725	-34,7	23,2
3,573	-30,8	24,3
3,5735	-28,6	25,6
3,574	-26,6	26,8
3,5745	-23,2	27,8
3,575	-18,0	28,6
3,5755	-11,7	29,3
3,576	-5,8	30,4
3,5765	-1,1	31,9
3,577	2,3	33,6
3,5775	4,9	35,1
3,578	6,8	36,7
3,5785	7,7	38,6
3,579	7,0	40,7
3,5795	5,2	42,5
3,58	3,1	43,2
3,5805	1,5	42,3
3,581	0,0	40,2
3,5815	-1,4	37,5
3,582	-2,3	35,5
3,5825	-2,6	34,8
3,583	-2,5	35,2
3,5835	-2,8	36,1
3,584	-3,4	36,8
3,5845	-4,8	36,8
3,585	-7,8	35,5
3,5855	-13,2	32,4
3,586	-20,5	27,7
3,5865	-27,8	22,5
3,587	-33,1	18,2
3,5875	-35,3	15,9
3,588	-34,7	15,9
3,5885	-32,0	17,6
3,589	-27,9	20,0
3,5895	-23,1	22,1
3,59	-18,1	23,5
3,5905	-13,4	24,3
3,591	-9,8	24,8
3,5915	-8,3	25,5
3,592	-9,9	26,1
3,5925	-13,8	26,7
3,593	-17,8	26,9
3,5935	-19,5	26,4
3,594	-18,6	25,0
3,5945	-16,0	22,7
3,595	-12,7	20,4
3,5955	-9,6	18,8
3,596	-7,1	18,1
3,5965	-5,3	18,3
3,597	-4,3	19,0
3,5975	-4,2	19,9
3,598	-5,2	20,6
3,5985	-7,0	20,9
3,599	-8,8	21,0
3,5995	-9,6	21,2
3,6	-9,1	21,5
3,6005	-7,7	22,0
3,601	-6,0	22,5
3,6015	-4,3	23,1
3,602	-2,5	24,0
3,6025	-0,4	25,5
3,603	1,8	27,3
3,6035	3,3	29,0
3,604	3,5	29,8
3,6045	2,3	29,7
3,605	0,0	29,1
3,6055	-2,5	29,1
3,606	-5,1	29,7
3,6065	-8,4	30,0
3,607	-12,9	29,3
3,6075	-18,6	27,3
3,608	-24,1	24,9
3,6085	-28,2	23,2
3,609	-30,6	22,6
3,6095	-31,4	23,1
3,61	-30,9	24,5
3,6105	-29,3	26,5
3,611	-27,3	28,5
3,6115	-25,7	30,0
3,612	-24,9	30,4
3,6125	-25,1	29,8
3,613	-26,2	28,5
3,6135	-28,0	27,1
3,614	-30,2	25,8
3,6145	-32,5	24,8
3,615	-34,6	23,9
3,6155	-36,1	23,1
3,616	-36,9	22,7
3,6165	-37,3	23,0
3,617	-37,6	24,4
3,6175	-37,8	26,6
3,618	-37,3	29,2
3,6185	-35,9	31,8
3,619	-33,7	33,9
3,6195	-30,8	35,2
3,62	-27,5	35,5
3,6205	-24,0	34,8
