Interval=	0,0005 s
ExcelDateTime=	4,5902499367042270e+004	2/09/2025 11:59:05,312453
TimeFormat=	StartOfBlock
DateFormat=	
ChannelTitle=	Biceps	Triceps
Range=	1000,0 µV	1000,0 µV
0	-0,3	-2,0
0,0005	-4,6	-26,5
0,001	-19,1	-103,4
0,0015	-47,8	-241,2
0,002	-87,9	-414,2
0,0025	-131,3	-578,4
0,003	-170,5	-705,7
0,0035	-200,3	-786,6
0,004	-218,2	-820,3
0,0045	-223,8	-813,7
0,005	-219,2	-776,3
0,0055	-207,1	-715,8
0,006	-189,2	-633,6
0,0065	-165,3	-526,7
0,007	-134,9	-395,1
0,0075	-98,4	-246,6
0,008	-58,0	-93,1
0,0085	-16,3	54,4
0,009	24,6	190,5
0,0095	64,2	315,5
0,01	103,5	433,3
0,0105	142,9	546,8
0,011	181,2	652,1
0,0115	215,1	739,3
0,012	240,6	796,6
0,0125	254,9	817,7
0,013	257,8	804,3
0,0135	251,8	762,1
0,014	239,1	695,3
0,0145	220,4	603,3
0,015	194,5	484,4
0,0155	160,6	342,5
0,016	120,0	187,8
0,0165	75,6	32,6
0,017	30,6	-115,2
0,0175	-13,6	-253,3
0,018	-56,0	-382,2
0,0185	-96,1	-502,0
0,019	-133,3	-611,1
0,0195	-166,6	-704,3
0,02	-194,2	-773,6
0,0205	-213,8	-811,3
0,021	-223,7	-814,3
0,0215	-223,6	-786,1
0,022	-214,6	-732,8
0,0225	-197,9	-657,4
0,023	-173,7	-558,0
0,0235	-141,7	-433,4
0,024	-103,1	-288,7
0,0245	-60,6	-135,0
0,025	-17,4	15,8
0,0255	23,9	155,9
0,026	62,7	283,9
0,0265	99,3	403,2
0,027	134,4	517,9
0,0275	168,1	626,9
0,028	198,0	721,6
0,0285	219,8	789,6
0,029	230,1	822,1
0,0295	228,9	818,4
0,03	219,0	784,2
0,0305	203,1	725,0
0,031	182,2	642,3
0,0315	155,7	533,4
0,032	123,3	398,9
0,0325	86,2	246,5
0,033	46,5	88,1
0,0335	6,8	-65,4
0,034	-31,7	-208,9
0,0345	-68,7	-342,3
0,035	-104,3	-466,3
0,0355	-138,2	-580,2
0,036	-169,2	-680,0
0,0365	-195,2	-758,5
0,037	-214,4	-807,9
0,0375	-224,9	-823,0
0,038	-226,9	-805,5
0,0385	-221,3	-761,0
0,039	-208,8	-693,6
0,0395	-189,5	-602,5
0,04	-162,5	-485,3
0,0405	-127,5	-344,5
0,041	-86,3	-190,0
0,0415	-42,2	-34,8
0,042	1,5	110,8
0,0425	42,9	243,2
0,043	82,6	364,9
0,0435	121,9	481,0
0,044	160,8	593,1
0,0445	196,9	695,1
0,045	226,1	775,5
0,0455	245,4	823,8
0,046	253,9	836,2
0,0465	252,9	815,8
0,047	244,3	768,1
0,0475	228,8	695,8
0,048	206,4	597,0
0,0485	176,3	471,2
0,049	139,1	323,6
0,0495	97,0	165,3
0,05	52,5	7,7
0,0505	7,4	-143,3
0,051	-38,0	-286,4
0,0515	-83,0	-421,4
0,052	-126,3	-546,4
0,0525	-166,0	-657,7
0,053	-200,8	-748,7
0,0535	-229,2	-811,4
0,054	-249,8	-839,6
0,0545	-261,3	-832,9
0,055	-263,2	-796,6
0,0555	-255,8	-735,9
0,056	-239,6	-651,8
0,0565	-214,7	-541,9
0,057	-181,4	-407,3
0,0575	-140,8	-255,8
0,058	-94,7	-99,8
0,0585	-45,6	49,8
0,059	3,2	187,3
0,0595	49,1	313,3
0,06	90,3	431,7
0,0605	126,9	545,3
0,061	159,0	650,6
0,0615	185,9	737,6
0,062	206,0	795,0
0,0625	218,1	816,6
0,063	222,1	804,3
0,0635	218,6	763,6
0,064	208,0	698,8
0,0645	189,6	609,5
0,065	162,7	494,3
0,0655	127,0	356,1
0,066	84,4	204,4
0,0665	37,7	50,5
0,067	-11,2	-97,7
0,0675	-61,1	-237,5
0,068	-110,7	-368,9
0,0685	-157,2	-491,3
0,069	-197,0	-602,6
0,0695	-227,8	-697,4
0,07	-248,5	-768,3
0,0705	-259,4	-807,9
0,071	-261,9	-813,3
0,0715	-258,4	-788,1
0,072	-250,1	-737,8
0,0725	-236,8	-665,4
0,073	-217,1	-568,8
0,0735	-190,5	-446,4
0,074	-157,9	-302,7
0,0745	-121,1	-148,8
0,075	-82,0	2,9
0,0755	-41,3	143,8
0,076	0,2	271,9
0,0765	41,7	390,5
0,077	83,3	504,2
0,0775	124,8	612,8
0,078	164,6	708,6
0,0785	199,5	779,6
0,079	226,4	816,8
0,0795	243,3	817,8
0,08	250,3	787,2
0,0805	247,9	730,1
0,081	236,9	648,3
0,0815	217,8	540,3
0,082	191,5	407,2
0,0825	158,9	256,2
0,083	121,4	98,9
0,0835	80,3	-54,4
0,084	37,8	-198,7
0,0845	-4,1	-332,8
0,085	-44,1	-457,0
0,0855	-81,9	-570,4
0,086	-117,4	-669,9
0,0865	-149,3	-749,1
0,087	-175,3	-800,4
0,0875	-192,8	-818,4
0,088	-201,1	-804,0
0,0885	-200,3	-762,5
0,089	-191,1	-698,0
0,0895	-173,4	-610,0
0,09	-147,0	-496,1
0,0905	-113,2	-358,3
0,091	-74,7	-205,8
0,0915	-34,5	-51,0
0,092	5,7	95,9
0,0925	45,2	230,4
0,093	84,2	353,9
0,0935	122,8	470,7
0,094	161,0	582,7
0,0945	197,2	684,6
0,095	228,6	764,9
0,0955	251,9	813,0
0,096	265,3	824,5
0,0965	268,5	802,9
0,097	262,1	754,3
0,0975	247,3	682,0
0,098	224,3	584,6
0,0985	193,3	460,9
0,099	155,3	315,8
0,0995	112,5	160,0
0,1	67,2	5,1
0,1005	21,6	-142,0
0,101	-23,1	-279,7
0,1015	-66,4	-408,2
0,102	-107,6	-526,9
0,1025	-145,9	-633,1
0,103	-179,8	-720,8
0,1035	-207,1	-782,6
0,104	-225,9	-812,0
0,1045	-235,4	-807,3
0,105	-235,8	-772,6
0,1055	-228,0	-713,3
0,106	-212,6	-631,0
0,1065	-189,1	-523,6
0,107	-157,5	-390,8
0,1075	-119,3	-239,7
0,108	-77,1	-82,7
0,1085	-34,3	68,3
0,109	6,9	206,5
0,1095	45,9	331,8
0,11	83,5	448,6
0,1105	120,4	560,5
0,111	156,4	664,7
0,1115	189,4	751,3
0,112	216,8	808,8
0,1125	236,1	830,5
0,113	246,5	817,6
0,1135	248,2	775,7
0,114	241,2	708,6
0,1145	224,8	615,7
0,115	198,5	495,2
0,1155	163,4	351,2
0,116	123,2	194,6
0,1165	81,0	37,6
0,117	38,6	-111,9
0,1175	-4,1	-252,2
0,118	-47,2	-383,9
0,1185	-89,7	-506,7
0,119	-129,8	-617,9
0,1195	-165,8	-712,6
0,12	-196,0	-783,6
0,1205	-218,4	-823,8
0,121	-231,4	-830,0
0,1215	-234,6	-804,8
0,122	-229,2	-754,1
0,1225	-216,6	-681,3
0,123	-197,1	-585,1
0,1235	-170,2	-463,3
0,124	-136,4	-319,8
0,1245	-97,9	-165,2
0,125	-57,4	-11,8
0,1255	-16,9	131,6
0,126	22,4	262,4
0,1265	60,3	383,2
0,127	97,1	498,2
0,1275	132,6	606,8
0,128	165,1	701,4
0,1285	192,0	770,4
0,129	211,0	805,5
0,1295	221,1	806,3
0,13	222,1	777,6
0,1305	215,1	724,4
0,131	200,4	647,7
0,1315	178,4	544,8
0,132	149,2	416,1
0,1325	113,6	268,9
0,133	73,4	115,2
0,1335	30,7	-35,0
0,134	-12,5	-176,8
0,1345	-55,7	-309,6
0,135	-98,8	-433,6
0,1355	-141,4	-547,7
0,136	-181,5	-648,5
0,1365	-215,9	-730,0
0,137	-241,4	-784,3
0,1375	-255,9	-805,8
0,138	-259,1	-795,1
0,1385	-252,3	-757,3
0,139	-237,5	-696,9
0,1395	-215,7	-613,5
0,14	-186,5	-503,9
0,1405	-149,9	-369,9
0,141	-108,2	-220,4
0,1415	-64,8	-68,0
0,142	-22,9	77,3
0,1425	15,9	211,6
0,143	51,8	336,3
0,1435	86,2	455,2
0,144	120,3	569,7
0,1445	153,6	674,2
0,145	183,1	757,3
0,1455	205,8	807,7
0,146	220,2	820,8
0,1465	225,9	800,0
0,147	223,7	752,1
0,1475	213,7	680,5
0,148	195,7	584,4
0,1485	169,3	462,2
0,149	135,3	318,4
0,1495	95,7	163,6
0,15	53,5	9,7
0,1505	10,9	-136,4
0,151	-30,8	-273,3
0,1515	-71,3	-402,1
0,152	-109,6	-522,7
0,1525	-144,3	-632,3
0,153	-173,4	-724,5
0,1535	-195,6	-790,8
0,154	-210,4	-823,7
0,1545	-219,1	-821,5
0,155	-223,5	-789,1
0,1555	-224,5	-732,4
0,156	-220,4	-653,3
0,1565	-208,1	-549,9
0,157	-185,2	-421,7
0,1575	-152,0	-274,8
0,158	-111,4	-120,8
0,1585	-66,8	29,2
0,159	-20,7	168,3
0,1595	25,8	295,9
0,16	71,7	415,4
0,1605	116,6	530,3
0,161	159,1	638,3
0,1615	196,6	729,7
0,162	225,8	792,6
0,1625	243,5	819,5
0,163	248,2	810,8
0,1635	240,7	772,3
0,164	223,4	708,8
0,1645	198,9	621,3
0,165	168,8	508,2
0,1655	133,8	371,7
0,166	95,5	220,3
0,1665	56,1	65,9
0,167	17,7	-82,7
0,1675	-18,5	-221,8
0,168	-52,7	-351,9
0,1685	-86,2	-473,2
0,169	-120,3	-584,5
0,1695	-154,2	-681,8
0,17	-184,9	-757,7
0,1705	-208,1	-804,1
0,171	-220,5	-816,3
0,1715	-221,7	-795,9
0,172	-213,0	-748,6
0,1725	-196,7	-677,8
0,173	-173,9	-583,1
0,1735	-145,0	-463,5
0,174	-110,3	-323,3
0,1745	-71,2	-172,6
0,175	-29,7	-22,8
0,1755	11,8	118,3
0,176	51,4	248,2
0,1765	88,7	369,5
0,177	124,0	486,3
0,1775	157,8	598,2
0,178	189,6	697,5
0,1785	217,5	772,2
0,179	238,2	812,8
0,1795	249,0	817,2
0,18	249,3	790,0
0,1805	240,1	737,0
0,181	222,5	659,8
0,1815	197,2	556,5
0,182	164,3	426,8
0,1825	125,6	277,6
0,183	83,7	120,4
0,1835	41,3	-33,5
0,184	0,0	-178,5
0,1845	-39,8	-313,6
0,185	-78,0	-439,4
0,1855	-114,2	-555,3
0,186	-147,8	-658,1
0,1865	-177,5	-741,2
0,187	-201,7	-796,7
0,1875	-218,5	-818,6
0,188	-226,9	-807,3
0,1885	-226,5	-767,9
0,189	-217,2	-705,1
0,1895	-198,7	-618,9
0,19	-170,7	-506,9
0,1905	-133,8	-370,6
0,191	-90,5	-218,6
0,1915	-44,9	-63,5
0,192	-0,5	84,2
0,1925	41,6	219,6
0,193	81,9	343,8
0,1935	121,1	461,0
0,194	158,6	573,6
0,1945	192,6	676,7
0,195	220,3	759,5
0,1955	239,7	811,1
0,196	249,6	826,8
0,1965	250,3	809,2
0,197	242,8	763,8
0,1975	228,1	694,2
0,198	206,4	599,4
0,1985	177,2	478,2
0,199	141,0	334,8
0,1995	99,9	179,6
0,2	56,3	23,9
0,2005	12,4	-124,8
0,201	-31,2	-264,5
0,2015	-73,9	-395,0
0,202	-115,2	-515,8
0,2025	-153,9	-625,1
0,203	-188,5	-718,3
0,2035	-216,5	-787,7
0,204	-235,7	-824,8
0,2045	-245,0	-826,0
0,205	-244,9	-795,0
0,2055	-237,2	-738,2
0,206	-222,7	-659,0
0,2065	-200,9	-555,9
0,207	-171,2	-428,4
0,2075	-133,8	-281,8
0,208	-90,7	-126,7
0,2085	-45,4	25,6
0,209	-1,3	167,7
0,2095	39,8	298,0
0,21	77,7	419,3
0,2105	113,3	534,9
0,211	147,0	643,2
0,2115	177,6	735,5
0,212	202,9	800,4
0,2125	220,5	830,3
0,213	229,3	825,0
0,2135	229,9	789,9
0,214	222,8	729,9
0,2145	208,1	645,7
0,215	185,2	534,6
0,2155	154,3	397,7
0,216	117,1	243,6
0,2165	76,1	84,5
0,217	33,3	-70,0
0,2175	-9,8	-216,3
0,218	-52,8	-354,1
0,2185	-94,4	-482,3
0,219	-133,5	-598,2
0,2195	-168,7	-697,5
0,22	-198,5	-773,5
0,2205	-221,3	-818,9
0,221	-235,4	-829,4
0,2215	-241,1	-807,3
0,222	-239,0	-758,8
0,2225	-229,7	-688,3
0,223	-213,0	-594,5
0,2235	-188,2	-475,5
0,224	-155,8	-334,3
0,2245	-117,7	-181,2
0,225	-76,3	-28,2
0,2255	-34,0	115,6
0,226	7,6	247,3
0,2265	48,2	369,5
0,227	88,1	486,3
0,2275	127,5	598,3
0,228	164,5	698,0
0,2285	195,6	773,6
0,229	217,2	814,8
0,2295	228,3	819,3
0,23	229,9	791,7
0,2305	224,0	738,8
0,231	211,8	663,2
0,2315	192,8	563,3
0,232	165,7	438,0
0,2325	130,8	292,6
0,233	90,2	137,8
0,2335	46,9	-15,4
0,234	3,4	-160,9
0,2345	-39,2	-297,5
0,235	-80,6	-425,0
0,2355	-120,6	-543,0
0,236	-158,4	-648,3
0,2365	-192,6	-734,8
0,237	-221,1	-793,9
0,2375	-241,5	-818,8
0,238	-252,7	-809,1
0,2385	-254,7	-770,0
0,239	-248,1	-707,2
0,2395	-233,0	-621,8
0,24	-208,9	-511,4
0,2405	-176,1	-377,0
0,241	-136,7	-227,0
0,2415	-95,5	-74,0
0,242	-58,2	71,1
0,2425	-27,3	203,4
0,243	-0,8	324,8
0,2435	25,8	440,5
0,244	56,1	553,1
0,2445	89,0	658,2
0,245	120,2	744,5
0,2455	145,1	800,4
0,246	161,8	820,5
0,2465	171,4	807,3
0,247	175,4	766,2
0,2475	174,1	700,8
0,248	166,2	609,9
0,2485	150,4	491,8
0,249	126,5	350,1
0,2495	96,6	194,8
0,25	63,4	37,9
0,2505	28,8	-112,0
0,251	-6,8	-252,3
0,2515	-42,9	-382,8
0,252	-79,5	-503,4
0,2525	-115,7	-612,3
0,253	-149,5	-704,5
0,2535	-179,0	-772,4
0,254	-203,5	-808,6
0,2545	-223,2	-810,4
0,255	-237,8	-782,1
0,2555	-245,6	-729,8
0,256	-244,4	-656,2
0,2565	-231,7	-558,3
0,257	-206,3	-434,3
0,2575	-168,9	-288,6
0,258	-122,6	-132,7
0,2585	-71,9	20,8
0,259	-20,7	163,5
0,2595	29,1	293,3
0,26	76,8	413,5
0,2605	122,3	527,9
0,261	164,8	635,5
0,2615	202,4	728,0
0,262	232,8	793,8
0,2625	253,7	824,4
0,263	263,9	819,3
0,2635	263,5	783,8
0,264	253,3	723,4
0,2645	233,9	639,3
0,265	205,8	529,6
0,2655	170,1	395,5
0,266	128,8	244,8
0,2665	84,3	89,1
0,267	39,1	-61,8
0,2675	-5,7	-203,7
0,268	-49,3	-336,1
0,2685	-91,3	-459,5
0,269	-131,2	-573,3
0,2695	-167,8	-674,1
0,27	-199,5	-755,2
0,2705	-224,0	-808,2
0,271	-239,2	-826,6
0,2715	-243,9	-810,8
0,272	-238,9	-766,0
0,2725	-225,9	-697,3
0,273	-205,6	-604,4
0,2735	-178,1	-485,5
0,274	-143,4	-343,5
0,2745	-103,3	-188,2
0,275	-60,3	-32,7
0,2755	-16,2	113,2
0,276	28,3	245,6
0,2765	72,8	367,0
0,277	116,4	482,2
0,2775	157,3	592,7
0,278	193,5	692,1
0,2785	223,3	768,7
0,279	244,8	812,6
0,2795	256,8	821,0
0,28	259,3	797,6
0,2805	253,3	748,0
0,281	239,8	674,1
0,2815	218,7	574,3
0,282	189,0	447,7
0,2825	151,0	300,0
0,283	106,8	142,8
0,2835	59,9	-12,3
0,284	13,3	-158,8
0,2845	-31,5	-295,3
0,285	-73,8	-422,0
0,2855	-113,9	-538,6
0,286	-151,5	-642,3
0,2865	-185,3	-727,8
0,287	-213,0	-787,9
0,2875	-232,0	-815,9
0,288	-241,5	-810,5
0,2885	-241,5	-775,5
0,289	-233,2	-715,4
0,2895	-217,1	-631,7
0,29	-192,6	-522,2
0,2905	-159,5	-387,8
0,291	-119,3	-236,8
0,2915	-75,4	-81,8
0,292	-31,6	65,7
0,2925	9,4	200,0
0,293	46,8	321,6
0,2935	81,7	434,8
0,294	115,3	542,9
0,2945	148,1	644,0
0,295	178,4	729,1
0,2955	203,4	787,2
0,296	220,1	811,0
0,2965	227,2	800,7
0,297	225,5	761,2
0,2975	216,4	696,7
0,298	200,4	607,0
0,2985	176,6	490,7
0,299	144,3	350,6
0,2995	104,8	196,5
0,3	61,4	40,3
0,3005	17,0	-109,4
0,301	-26,7	-249,8
0,3015	-69,5	-380,6
0,302	-110,8	-501,4
0,3025	-149,6	-610,4
0,303	-184,4	-703,1
0,3035	-213,0	-772,6
0,304	-233,4	-811,4
0,3045	-244,0	-816,3
0,305	-244,9	-790,3
0,3055	-236,9	-739,0
0,306	-221,3	-665,0
0,3065	-199,0	-566,5
0,307	-170,9	-442,7
0,3075	-137,9	-299,3
0,308	-101,0	-147,5
0,3085	-61,8	1,2
0,309	-21,8	139,8
0,3095	18,4	267,2
0,31	58,5	386,5
0,3105	98,6	501,6
0,311	138,0	611,5
0,3115	175,1	707,7
0,312	206,7	777,8
0,3125	229,6	813,2
0,313	241,9	812,7
0,3135	244,0	781,7
0,314	237,4	725,5
0,3145	222,4	645,3
0,315	198,7	538,6
0,3155	166,2	405,8
0,316	126,6	254,8
0,3165	82,8	97,8
0,317	37,6	-54,6
0,3175	-7,0	-197,3
0,318	-50,0	-330,3
0,3185	-91,0	-453,7
0,319	-129,9	-567,0
0,3195	-166,3	-666,7
0,32	-198,8	-746,3
0,3205	-224,7	-797,4
0,321	-241,4	-814,5
0,3215	-247,8	-798,6
0,322	-244,6	-755,4
0,3225	-233,0	-689,3
0,323	-213,9	-599,9
0,3235	-187,8	-484,7
0,324	-156,6	-346,2
0,3245	-122,6	-193,7
0,325	-87,3	-39,9
0,3255	-50,9	105,2
0,326	-12,8	237,9
0,3265	27,0	360,5
0,327	67,5	477,1
0,3275	106,8	588,9
0,328	142,3	689,8
0,3285	171,7	768,3
0,329	193,6	814,3
0,3295	207,6	824,5
0,33	214,0	802,9
0,3305	213,4	755,3
0,331	206,3	683,7
0,3315	192,0	586,1
0,332	169,8	460,8
0,3325	139,8	313,4
0,333	103,7	155,6
0,3335	64,1	-0,7
0,334	23,5	-148,2
0,3345	-16,6	-285,7
0,335	-55,3	-413,3
0,3355	-91,8	-530,9
0,336	-126,9	-636,1
0,3365	-162,5	-723,6
0,337	-199,5	-785,6
0,3375	-235,7	-814,9
0,338	-266,6	-810,0
0,3385	-287,7	-775,4
0,339	-296,7	-717,0
0,3395	-292,5	-636,2
0,34	-274,6	-530,4
0,3405	-243,2	-399,6
0,341	-199,8	-250,8
0,3415	-147,7	-96,3
0,342	-90,9	52,4
0,3425	-33,3	189,4
0,343	22,2	314,4
0,3435	74,1	431,8
0,344	121,8	544,5
0,3445	164,7	649,8
0,345	201,1	737,7
0,3455	228,9	796,6
0,346	246,2	819,5
0,3465	252,5	807,8
0,347	249,1	768,0
0,3475	238,3	704,9
0,348	221,3	618,1
0,3485	197,4	504,8
0,349	165,8	366,9
0,3495	127,3	213,4
0,35	84,4	57,2
0,3505	40,2	-92,1
0,351	-3,0	-231,1
0,3515	-43,8	-360,3
0,352	-81,5	-480,3
0,3525	-116,5	-589,8
0,353	-148,9	-684,6
0,3535	-177,5	-757,4
0,354	-199,9	-800,3
0,3545	-213,2	-809,1
0,355	-216,3	-786,3
0,3555	-209,0	-738,2
0,356	-192,1	-667,9
0,3565	-167,0	-573,2
0,357	-135,6	-451,6
0,3575	-99,7	-307,3
0,358	-60,9	-151,8
0,3585	-20,8	1,9
0,359	19,2	144,8
0,3595	57,6	274,9
0,36	94,0	395,5
0,3605	128,4	510,7
0,361	160,9	619,9
0,3615	190,1	715,2
0,362	213,5	784,8
0,3625	228,5	819,7
0,363	234,1	818,6
0,3635	231,3	786,1
0,364	221,1	727,9
0,3645	204,5	646,3
0,365	180,9	540,0
0,3655	150,0	409,6
0,366	112,4	261,7
0,3665	70,5	107,5
0,367	26,7	-42,9
0,3675	-17,0	-184,7
0,368	-59,5	-317,3
0,3685	-100,2	-441,2
0,369	-138,3	-555,3
0,3695	-173,8	-656,3
0,37	-205,4	-737,7
0,3705	-230,9	-791,6
0,371	-247,3	-812,0
0,3715	-252,8	-799,1
0,372	-248,0	-758,4
0,3725	-234,8	-694,4
0,373	-214,1	-606,8
0,3735	-185,9	-493,1
0,374	-150,6	-355,0
0,3745	-109,9	-202,0
0,375	-66,3	-47,3
0,3755	-22,2	98,3
0,376	21,2	230,3
0,3765	63,1	350,8
0,377	103,4	464,2
0,3775	141,8	572,9
0,378	176,9	672,6
0,3785	206,4	752,5
0,379	228,0	801,7
0,3795	240,8	815,3
0,38	245,3	796,2
0,3805	242,5	749,7
0,381	232,6	678,3
0,3815	214,7	580,7
0,382	187,8	456,2
0,3825	152,5	310,6
0,383	111,5	155,0
0,3835	68,2	1,2
0,384	24,6	-144,0
0,3845	-18,2	-279,4
0,385	-60,0	-406,3
0,3855	-100,1	-524,4
0,386	-137,2	-631,4
0,3865	-169,7	-721,4
0,387	-195,7	-786,4
0,3875	-213,3	-818,9
0,388	-221,8	-816,7
0,3885	-222,7	-784,1
0,389	-218,1	-726,7
0,3895	-208,7	-646,9
0,39	-192,9	-543,0
0,3905	-168,5	-415,1
0,391	-135,5	-269,4
0,3915	-96,1	-117,0
0,392	-53,8	31,0
0,3925	-11,5	168,1
0,393	29,8	293,8
0,3935	69,9	412,0
0,394	109,3	526,3
0,3945	147,1	634,2
0,395	181,4	726,1
0,3955	208,9	789,7
0,396	227,2	817,3
0,3965	235,7	809,5
0,397	235,5	772,3
0,3975	227,6	710,7
0,398	211,9	624,8
0,3985	187,3	512,5
0,399	153,6	376,2
0,3995	112,3	224,9
0,4	66,7	70,6
0,4005	18,8	-77,8
0,401	-31,4	-217,0
0,4015	-84,7	-347,4
0,402	-139,3	-469,6
0,4025	-191,1	-582,2
0,403	-235,1	-680,8
0,4035	-267,8	-757,4
0,404	-287,3	-803,6
0,4045	-293,0	-814,6
0,405	-285,8	-792,8
0,4055	-267,8	-744,2
0,406	-240,7	-672,3
0,4065	-206,4	-576,1
0,407	-166,2	-453,9
0,4075	-121,6	-310,2
0,408	-74,7	-156,1
0,4085	-27,8	-4,6
0,409	17,1	135,3
0,4095	58,8	261,6
0,41	97,7	378,3
0,4105	135,3	490,6
0,411	171,8	599,4
0,4115	206,0	697,6
0,412	234,5	772,7
0,4125	254,7	814,6
0,413	265,1	820,4
0,4135	265,8	793,8
0,414	257,6	740,4
0,4145	241,3	661,8
0,415	217,0	556,3
0,4155	184,3	424,1
0,416	144,2	272,0
0,4165	99,3	112,6
0,417	53,3	-42,6
0,4175	8,5	-187,6
0,418	-34,5	-321,9
0,4185	-75,8	-446,4
0,419	-115,4	-560,4
0,4195	-152,2	-661,0
0,42	-184,4	-741,7
0,4205	-209,7	-795,0
0,421	-226,5	-815,2
0,4215	-234,4	-802,7
0,422	-234,4	-762,8
0,4225	-227,4	-700,2
0,423	-213,7	-614,7
0,4235	-192,2	-503,4
0,424	-163,0	-367,8
0,4245	-127,9	-216,3
0,425	-90,3	-61,9
0,4255	-52,9	85,0
0,426	-17,2	219,6
0,4265	16,8	343,5
0,427	49,5	461,1
0,4275	81,8	574,3
0,428	114,5	678,4
0,4285	146,2	762,2
0,429	173,7	814,3
0,4295	194,0	829,7
0,43	205,7	811,1
0,4305	209,2	765,1
0,431	204,6	695,5
0,4315	190,8	600,9
0,432	167,4	479,4
0,4325	135,5	335,2
0,433	98,3	179,4
0,4335	59,2	24,1
0,434	20,5	-123,4
0,4345	-17,1	-261,5
0,435	-54,0	-390,6
0,4355	-90,8	-510,3
0,436	-127,4	-618,9
0,4365	-161,7	-711,3
0,437	-190,5	-779,9
0,4375	-210,8	-816,4
0,438	-220,7	-818,2
0,4385	-220,6	-789,3
0,439	-211,8	-736,2
0,4395	-195,9	-661,0
0,44	-173,1	-561,0
0,4405	-143,4	-434,9
0,441	-107,3	-288,3
0,4415	-66,6	-133,3
0,442	-24,3	17,9
0,4425	17,2	157,8
0,443	56,7	285,7
0,4435	94,8	405,6
0,444	132,5	521,2
0,4445	169,3	630,7
0,445	202,6	724,4
0,4455	228,8	790,4
0,446	244,3	820,5
0,4465	247,3	814,9
0,447	237,3	779,5
0,4475	215,3	719,6
0,448	183,4	635,6
0,4485	143,6	525,2
0,449	98,2	389,9
0,4495	49,8	238,2
0,45	1,4	82,3
0,4505	-44,0	-68,5
0,451	-84,8	-210,2
0,4515	-121,2	-342,3
0,452	-154,0	-464,8
0,4525	-183,8	-575,9
0,453	-209,8	-672,1
0,4535	-230,3	-746,4
0,454	-243,4	-791,0
0,4545	-247,8	-801,4
0,455	-243,5	-779,5
0,4555	-231,3	-731,1
0,456	-212,3	-660,1
0,4565	-187,4	-565,7
0,457	-156,7	-446,4
0,4575	-120,4	-306,0
0,458	-79,4	-154,6
0,4585	-35,8	-4,0
0,459	7,7	137,6
0,4595	48,9	267,2
0,46	86,9	387,0
0,4605	122,2	501,1
0,461	155,4	610,5
0,4615	186,0	708,6
0,462	211,8	783,0
0,4625	230,3	822,7
0,463	240,0	824,7
0,4635	240,8	794,0
0,464	233,8	737,4
0,4645	219,8	657,5
0,465	198,9	552,6
0,4655	170,8	422,3
0,466	135,9	273,0
0,4665	96,1	116,3
0,467	54,1	-36,6
0,4675	11,8	-179,9
0,468	-30,5	-313,2
0,4685	-73,1	-437,5
0,469	-116,0	-552,6
0,4695	-158,2	-655,4
0,47	-196,6	-739,9
0,4705	-227,1	-797,8
0,471	-246,5	-822,8
0,4715	-254,8	-814,8
0,472	-253,7	-778,3
0,4725	-244,3	-717,8
0,473	-226,6	-633,9
0,4735	-199,6	-523,9
0,474	-163,6	-389,3
0,4745	-120,6	-238,6
0,475	-73,9	-84,3
0,4755	-26,2	62,9
0,476	20,4	198,3
0,4765	64,6	322,6
0,477	106,0	440,0
0,4775	144,5	552,9
0,478	179,4	657,2
0,4785	208,9	742,5
0,479	230,7	797,6
0,4795	243,5	816,7
0,48	247,7	801,9
0,4805	244,5	759,5
0,481	234,6	693,2
0,4815	217,5	602,1
0,482	190,7	484,5
0,4825	152,3	343,9
0,483	103,4	190,7
0,4835	48,9	36,8
0,484	-5,0	-110,0
0,4845	-54,4	-247,7
0,485	-98,5	-376,7
0,4855	-137,8	-496,8
0,486	-173,2	-605,5
0,4865	-204,1	-697,7
0,487	-228,7	-766,0
0,4875	-245,1	-803,0
0,488	-252,0	-805,9
0,4885	-250,4	-777,9
0,489	-242,2	-724,7
0,4895	-228,3	-648,5
0,49	-207,5	-547,6
0,4905	-178,2	-421,1
0,491	-140,7	-275,0
0,4915	-97,8	-120,7
0,492	-53,4	29,2
0,4925	-10,3	167,0
0,493	30,3	291,5
0,4935	68,9	407,2
0,494	107,5	519,1
0,4945	146,4	626,5
0,495	183,8	720,6
0,4955	215,8	788,8
0,496	238,6	822,0
0,4965	250,3	819,5
0,497	250,8	786,2
0,4975	241,1	727,2
0,498	223,1	643,0
0,4985	197,8	531,7
0,499	166,1	395,7
0,4995	128,4	244,1
0,5	85,8	88,7
0,5005	40,3	-61,5
0,501	-5,7	-203,1
0,5015	-50,4	-335,7
0,502	-92,5	-459,1
0,5025	-131,3	-571,8
0,503	-165,7	-670,2
0,5035	-194,0	-747,7
0,504	-214,5	-796,7
0,5045	-226,0	-812,7
0,505	-229,0	-797,3
0,5055	-224,3	-755,7
0,506	-212,5	-690,8
0,5065	-193,3	-601,4
0,507	-165,4	-485,2
0,5075	-129,4	-345,7
0,508	-87,9	-193,6
0,5085	-45,1	-42,2
0,509	-4,1	98,8
0,5095	33,8	226,9
0,51	69,5	345,6
0,5105	104,2	459,8
0,511	138,3	570,3
0,5115	170,8	670,7
0,512	199,4	749,2
0,5125	221,2	795,4
0,513	234,4	806,0
0,5135	239,0	784,4
0,514	235,2	736,2
0,5145	222,8	663,7
0,515	200,3	565,1
0,5155	167,8	439,8
0,516	127,3	293,8
0,5165	82,7	138,7
0,517	37,3	-14,6
0,5175	-6,8	-159,5
0,518	-48,9	-294,8
0,5185	-88,9	-420,9
0,519	-126,5	-537,2
0,5195	-161,1	-641,1
0,52	-190,9	-726,8
0,5205	-214,0	-786,5
0,521	-228,3	-813,6
0,5215	-232,9	-806,9
0,522	-228,4	-771,3
0,5225	-216,3	-711,8
0,523	-198,3	-629,5
0,5235	-175,3	-521,8
0,524	-147,6	-389,4
0,5245	-115,6	-239,8
0,525	-80,0	-85,3
0,5255	-42,1	63,2
0,526	-3,0	200,4
0,5265	36,4	326,6
0,527	75,3	445,4
0,5275	113,4	559,0
0,528	149,6	663,1
0,5285	181,7	747,7
0,529	207,1	801,8
0,5295	224,0	820,5
0,53	232,0	806,1
0,5305	231,5	764,6
0,531	223,3	699,9
0,5315	206,9	610,9
0,532	181,6	495,4
0,5325	146,7	355,9
0,533	102,9	201,6
0,5335	53,1	44,1
0,534	0,9	-107,7
0,5345	-49,9	-249,6
0,535	-97,3	-380,9
0,5355	-140,4	-501,3
0,536	-178,5	-609,6
0,5365	-210,6	-701,8
0,537	-235,1	-770,6
0,5375	-250,5	-808,5
0,538	-255,9	-812,5
0,5385	-251,9	-786,0
0,539	-240,0	-735,2
0,5395	-221,0	-662,6
0,54	-195,1	-565,9
0,5405	-161,8	-443,2
0,541	-121,8	-299,2
0,5415	-77,4	-145,0
0,542	-31,4	7,0
0,5425	13,4	148,5
0,543	55,4	277,1
0,5435	94,7	396,0
0,544	132,8	509,4
0,5445	170,0	617,4
0,545	204,5	712,3
0,5455	233,1	782,0
0,546	252,9	817,3
0,5465	262,1	816,8
0,547	260,3	785,5
0,5475	248,2	729,0
0,548	226,8	648,0
0,5485	197,2	540,1
0,549	160,3	405,9
0,5495	117,8	253,7
0,55	72,4	96,3
0,5505	25,8	-55,6
0,551	-20,7	-197,4
0,5515	-67,2	-329,5
0,552	-114,3	-453,0
0,5525	-162,4	-567,3
0,553	-209,6	-668,6
0,5535	-251,8	-749,6
0,554	-283,8	-801,7
0,5545	-302,6	-818,9
0,555	-307,7	-802,3
0,5555	-300,9	-757,9
0,556	-284,2	-690,6
0,5565	-258,4	-600,3
0,557	-224,4	-485,1
0,5575	-183,8	-347,4
0,558	-139,1	-196,6
0,5585	-93,0	-44,7
0,559	-46,7	98,6
0,5595	-1,0	229,7
0,56	43,9	350,8
0,5605	88,1	466,0
0,561	131,6	576,9
0,5615	173,4	677,9
0,562	210,0	757,7
0,5625	237,1	805,6
0,563	252,1	817,3
0,5635	255,8	795,9
0,564	251,0	747,4
0,5645	240,2	675,2
0,565	223,5	577,9
0,5655	199,5	454,7
0,566	167,8	310,9
0,5665	129,7	157,3
0,567	87,6	4,9
0,5675	43,9	-139,8
0,568	-0,0	-275,4
0,5685	-43,0	-401,8
0,569	-84,0	-518,4
0,5695	-122,1	-622,8
0,57	-156,5	-709,3
0,5705	-185,2	-770,2
0,571	-206,0	-798,6
0,5715	-217,7	-793,2
0,572	-220,7	-758,8
0,5725	-216,7	-700,8
0,573	-207,3	-620,4
0,5735	-192,3	-515,2
0,574	-170,0	-385,7
0,5745	-139,4	-238,8
0,575	-101,2	-86,1
0,5755	-58,0	61,5
0,576	-13,6	197,6
0,5765	29,2	321,5
0,577	69,4	436,7
0,5775	107,6	546,2
0,578	143,4	647,9
0,5785	174,9	732,8
0,579	199,4	790,2
0,5795	215,2	813,6
0,58	222,5	804,0
0,5805	222,6	766,5
0,581	216,4	704,4
0,5815	203,8	617,2
0,582	183,8	502,8
0,5825	155,9	363,8
0,583	120,7	209,8
0,5835	80,0	52,7
0,584	36,8	-99,1
0,5845	-6,0	-242,0
0,585	-46,6	-375,4
0,5855	-84,9	-498,5
0,586	-121,1	-609,6
0,5865	-155,0	-704,3
0,587	-184,4	-776,1
0,5875	-206,2	-817,3
0,588	-218,4	-824,4
0,5885	-221,0	-799,9
0,589	-215,1	-749,5
0,5895	-201,4	-676,4
0,59	-179,8	-578,9
0,5905	-150,2	-455,7
0,591	-114,1	-311,4
0,5915	-74,7	-157,4
0,592	-34,9	-5,8
0,5925	3,3	135,0
0,593	39,6	263,2
0,5935	74,8	382,3
0,594	110,0	496,6
0,5945	145,2	605,8
0,595	178,4	702,0
0,5955	206,5	773,3
0,596	226,7	810,6
0,5965	237,3	812,3
0,597	237,6	783,5
0,5975	228,0	729,5
0,598	209,0	651,8
0,5985	180,8	547,9
0,599	144,2	418,2
0,5995	100,7	269,5
0,6	53,4	113,4
0,6005	5,7	-40,0
0,601	-40,2	-185,2
0,6015	-82,8	-320,7
0,602	-122,0	-446,2
0,6025	-157,7	-560,2
0,603	-189,9	-659,5
0,6035	-217,0	-738,0
0,604	-236,7	-788,0
0,6045	-246,7	-804,3
0,605	-246,5	-787,9
0,6055	-237,9	-745,2
0,606	-223,0	-681,3
0,6065	-202,7	-596,1
0,607	-176,1	-486,6
0,6075	-142,3	-354,2
0,608	-101,6	-207,5
0,6085	-56,4	-58,5
0,609	-10,0	83,8
0,6095	34,9	215,9
0,61	76,8	339,6
0,6105	115,0	458,1
0,611	150,4	572,3
0,6115	182,7	676,3
0,612	210,1	757,9
0,6125	229,8	806,2
0,613	240,0	816,8
0,6135	241,3	793,7
0,614	235,3	743,5
0,6145	222,9	670,2
0,615	203,3	573,2
0,6155	175,0	451,6
0,616	137,4	309,3
0,6165	92,4	156,5
0,617	43,9	4,0
0,6175	-4,4	-141,4
0,618	-50,3	-278,0
0,6185	-92,9	-405,8
0,619	-132,6	-523,9
0,6195	-168,8	-629,5
0,62	-200,0	-717,1
0,6205	-224,3	-779,1
0,621	-239,4	-808,8
0,6215	-244,4	-804,6
0,622	-240,0	-771,0
0,6225	-227,0	-713,9
0,623	-206,7	-634,9
0,6235	-179,7	-531,9
0,624	-146,4	-404,8
0,6245	-108,0	-259,7
0,625	-66,3	-108,0
0,6255	-23,2	39,7
0,626	19,7	177,3
0,6265	61,7	304,2
0,627	102,5	423,5
0,6275	141,9	537,8
0,628	179,3	644,3
0,6285	212,6	733,9
0,629	239,0	795,1
0,6295	255,6	820,5
0,63	261,3	810,3
0,6305	257,6	770,5
0,631	245,8	706,0
0,6315	226,1	617,2
0,632	197,7	502,1
0,6325	161,1	363,3
0,633	119,0	210,2
0,6335	74,4	55,0
0,634	29,8	-93,8
0,6345	-13,6	-233,3
0,635	-55,5	-364,1
0,6355	-95,7	-486,0
0,636	-134,3	-597,2
0,6365	-171,0	-693,1
0,637	-204,1	-765,9
0,6375	-230,3	-807,7
0,638	-246,8	-814,6
0,6385	-252,5	-789,7
0,639	-248,2	-739,3
0,6395	-234,8	-666,7
0,64	-212,4	-570,6
0,6405	-181,2	-449,3
0,641	-142,2	-306,8
0,6415	-98,3	-153,5
0,642	-52,7	-1,5
0,6425	-7,6	140,9
0,643	36,1	271,0
0,6435	78,3	391,7
0,644	119,2	507,0
0,6445	158,3	617,3
0,645	193,6	715,2
0,6455	222,2	788,6
0,646	241,5	827,9
0,6465	250,5	830,9
0,647	249,9	802,5
0,6475	240,8	748,1
0,648	224,0	668,5
0,6485	199,2	560,8
0,649	166,6	425,7
0,6495	127,7	271,7
0,65	85,2	111,8
0,6505	41,7	-42,6
0,651	-1,3	-187,0
0,6515	-43,0	-321,0
0,652	-83,2	-445,2
0,6525	-121,5	-559,0
0,653	-157,5	-659,3
0,6535	-189,5	-740,2
0,654	-215,0	-793,9
0,6545	-231,5	-814,5
0,655	-237,9	-802,5
0,6555	-235,9	-763,0
0,656	-228,6	-700,6
0,6565	-218,1	-614,9
0,657	-203,7	-503,2
0,6575	-181,9	-366,8
0,658	-150,2	-214,5
0,6585	-109,7	-58,9
0,659	-63,9	89,1
0,6595	-16,9	224,2
0,66	28,8	347,7
0,6605	72,3	463,9
0,661	113,9	575,7
0,6615	153,3	678,6
0,662	188,2	761,8
0,6625	215,6	813,9
0,663	232,7	829,6
0,6635	237,8	811,4
0,664	230,9	765,4
0,6645	213,3	695,3
0,665	187,0	599,9
0,6655	153,7	478,2
0,666	115,0	334,3
0,6665	72,6	178,4
0,667	28,3	21,6
0,6675	-15,4	-128,7
0,668	-56,8	-269,4
0,6685	-95,3	-399,8
0,669	-131,5	-518,8
0,6695	-165,8	-624,5
0,67	-196,9	-712,7
0,6705	-222,1	-776,4
0,671	-238,4	-808,8
0,6715	-244,7	-807,7
0,672	-240,9	-777,2
0,6725	-228,0	-722,4
0,673	-206,5	-644,7
0,6735	-176,9	-541,1
0,674	-140,2	-410,7
0,6745	-98,5	-260,1
0,675	-54,8	-102,5
0,6755	-11,8	49,1
0,676	29,0	187,3
0,6765	67,8	312,1
0,677	105,3	428,3
0,6775	141,8	540,8
0,678	177,0	647,8
0,6785	208,7	739,9
0,679	233,7	804,2
0,6795	249,6	832,0
0,68	255,8	823,2
0,6805	253,3	783,9
0,681	243,0	719,7
0,6815	225,1	631,9
0,682	199,2	518,7
0,6825	165,4	381,6
0,683	125,6	228,4
0,6835	82,2	70,9
0,684	37,7	-80,9
0,6845	-6,8	-222,5
0,685	-50,3	-353,6
0,6855	-92,1	-474,4
0,686	-131,1	-584,1
0,6865	-166,3	-679,1
0,687	-195,7	-752,9
0,6875	-217,2	-798,0
0,688	-229,0	-809,7
0,6885	-230,4	-789,8
0,689	-222,8	-743,6
0,6895	-207,5	-674,5
0,69	-185,7	-581,4
0,6905	-157,4	-462,5
0,691	-123,2	-321,8
0,6915	-85,0	-170,5
0,692	-45,7	-21,6
0,6925	-7,3	116,7
0,693	29,7	243,2
0,6935	66,1	362,2
0,694	102,8	478,6
0,6945	139,4	591,8
0,695	174,4	693,9
0,6955	204,5	772,3
0,696	226,0	816,5
0,6965	236,2	823,5
0,697	234,5	797,0
0,6975	222,8	743,1
0,698	203,7	664,5
0,6985	178,7	559,9
0,699	148,0	429,7
0,6995	112,1	280,5
0,7	72,5	123,8
0,7005	31,5	-29,6
0,701	-9,1	-174,5
0,7015	-48,5	-310,4
0,702	-86,1	-437,9
0,7025	-120,6	-555,6
0,703	-150,6	-659,7
0,7035	-175,1	-743,3
0,704	-193,4	-798,4
0,7045	-204,6	-819,4
0,705	-208,2	-807,0
0,7055	-204,7	-767,5
0,706	-195,4	-706,1
0,7065	-180,3	-622,8
0,707	-158,7	-514,3
0,7075	-129,8	-381,6
0,708	-94,7	-232,4
0,7085	-55,3	-79,0
0,709	-14,6	68,3
0,7095	25,2	203,8
0,71	62,8	328,0
0,7105	98,7	444,7
0,711	133,1	556,3
0,7115	165,9	659,0
0,712	194,8	742,4
0,7125	217,1	794,9
0,713	230,7	811,4
0,7135	235,1	794,6
0,714	230,9	751,1
0,7145	217,9	684,9
0,715	194,5	594,6
0,7155	160,0	477,4
0,716	116,3	336,4
0,7165	67,9	181,7
0,717	19,4	25,8
0,7175	-25,8	-123,2
0,718	-66,0	-262,3
0,7185	-101,2	-391,9
0,719	-132,7	-511,6
0,7195	-161,9	-619,7
0,72	-188,5	-711,0
0,7205	-210,3	-778,2
0,721	-224,6	-813,8
0,7215	-230,3	-815,3
0,722	-227,9	-786,3
0,7225	-218,4	-732,3
0,723	-202,6	-655,8
0,7235	-180,3	-554,8
0,724	-151,8	-428,5
0,7245	-119,0	-282,5
0,725	-84,3	-128,3
0,7255	-48,9	22,1
0,726	-13,1	161,3
0,7265	23,3	288,1
0,727	59,9	406,4
0,7275	96,5	520,3
0,728	132,6	628,7
0,7285	166,6	722,6
0,729	196,1	790,0
0,7295	218,6	822,5
0,73	233,0	819,4
0,7305	239,0	785,9
0,731	236,8	726,8
0,7315	225,9	642,8
0,732	205,1	531,8
0,7325	174,2	395,9
0,733	135,4	243,8
0,7335	92,4	87,7
0,734	48,5	-62,8
0,7345	5,4	-204,0
0,735	-35,9	-335,8
0,7355	-75,1	-458,4
0,736	-112,2	-571,5
0,7365	-146,9	-671,8
0,737	-178,2	-752,4
0,7375	-203,6	-804,1
0,738	-221,8	-820,7
0,7385	-233,0	-803,4
0,739	-237,2	-758,2
0,7395	-233,4	-689,8
0,74	-219,8	-597,7
0,7405	-195,2	-479,7
0,741	-160,3	-338,7
0,7415	-117,5	-184,8
0,742	-70,8	-30,8
0,7425	-23,7	113,7
0,743	21,7	245,3
0,7435	64,7	366,5
0,744	105,2	482,0
0,7445	142,4	592,8
0,745	174,9	692,5
0,7455	200,7	769,5
0,746	218,5	814,1
0,7465	227,9	823,0
0,747	229,4	800,1
0,7475	223,5	751,2
0,748	210,4	678,3
0,7485	189,7	579,0
0,749	161,2	452,4
0,7495	126,2	304,1
0,75	86,8	146,1
0,7505	45,3	-9,6
0,751	2,7	-156,7
0,7515	-40,0	-294,0
0,752	-82,0	-422,5
0,7525	-122,0	-541,4
0,753	-158,8	-647,7
0,7535	-190,5	-735,2
0,754	-214,9	-795,4
0,7545	-230,2	-822,0
0,755	-236,0	-814,7
0,7555	-233,4	-778,4
0,756	-224,4	-718,4
0,7565	-210,3	-635,3
0,757	-191,3	-526,5
0,7575	-166,8	-392,4
0,758	-136,8	-240,9
0,7585	-101,9	-84,7
0,759	-64,0	64,9
0,7595	-25,0	201,6
0,76	14,5	326,0
0,7605	55,0	442,4
0,761	97,1	554,1
0,7615	140,1	658,2
0,762	180,8	744,7
0,7625	214,8	802,1
0,763	238,9	823,7
0,7635	252,0	810,4
0,764	254,5	767,5
0,7645	247,3	698,8
0,765	230,4	604,1
0,7655	203,9	482,5
0,766	168,9	338,4
0,7665	127,9	182,9
0,767	84,5	27,9
0,7675	41,4	-119,0
0,768	0,1	-255,8
0,7685	-39,0	-383,4
0,769	-76,6	-502,2
0,7695	-113,2	-610,3
0,77	-148,2	-702,6
0,7705	-179,2	-771,8
0,771	-202,5	-810,3
0,7715	-215,7	-815,0
0,772	-218,3	-788,7
0,7725	-211,7	-736,8
0,773	-197,2	-661,6
0,7735	-175,3	-561,3
0,774	-146,1	-435,1
0,7745	-110,3	-288,4
0,775	-70,2	-133,0
0,7755	-28,8	19,1
0,776	11,4	159,9
0,7765	49,4	288,2
0,777	85,4	407,2
0,7775	120,0	520,5
0,778	153,2	626,9
0,7785	182,9	718,3
0,779	205,9	783,2
0,7795	219,3	813,7
0,78	222,5	809,5
0,7805	216,9	776,0
0,781	204,1	718,8
0,7815	184,8	638,4
0,782	158,3	532,5
0,7825	124,1	401,6
0,783	83,9	253,3
0,7835	40,5	99,3
0,784	-3,2	-51,1
0,7845	-45,6	-194,2
0,785	-86,0	-329,3
0,7855	-123,7	-456,0
0,786	-157,9	-572,0
0,7865	-188,9	-673,1
0,787	-216,0	-753,0
0,7875	-237,3	-803,6
0,788	-249,7	-819,8
0,7885	-251,7	-802,5
0,789	-243,8	-757,8
0,7895	-227,6	-690,1
0,79	-203,8	-599,1
0,7905	-171,6	-482,6
0,791	-131,3	-343,3
0,7915	-85,8	-190,8
0,792	-39,6	-37,4
0,7925	3,8	107,4
0,793	42,9	240,1
0,7935	79,2	362,5
0,794	114,2	479,2
0,7945	148,6	591,3
0,795	181,2	693,1
0,7955	209,4	772,9
0,796	230,7	819,8
0,7965	243,2	829,7
0,797	246,3	806,4
0,7975	240,7	756,2
0,798	227,0	682,1
0,7985	205,3	582,6
0,799	175,1	456,1
0,7995	137,3	307,9
0,8	94,5	149,6
0,8005	50,0	-6,3
0,801	5,9	-153,1
0,8015	-36,5	-289,9
0,802	-76,4	-418,1
0,8025	-112,1	-537,5
0,803	-142,7	-644,5
0,8035	-168,5	-732,3
0,804	-189,6	-792,5
0,8045	-205,1	-819,2
0,805	-213,5	-811,8
0,8055	-214,1	-776,0
0,806	-206,9	-717,3
0,8065	-192,0	-636,6
0,807	-169,0	-530,9
0,8075	-138,1	-400,2
0,808	-100,8	-252,1
0,8085	-59,4	-98,6
0,809	-16,7	49,0
0,8095	25,5	184,9
0,81	65,9	309,4
0,8105	104,0	426,7
0,811	140,0	539,7
0,8115	172,8	645,2
0,812	199,8	732,8
0,8125	218,0	790,8
0,813	226,0	812,9
0,8135	224,9	800,8
0,814	217,3	761,1
0,8145	204,8	698,2
0,815	187,1	611,4
0,8155	162,6	498,2
0,816	130,8	360,6
0,8165	92,8	208,1
0,817	51,9	52,9
0,8175	11,3	-96,2
0,818	-27,4	-235,8
0,8185	-64,0	-366,1
0,819	-99,7	-487,1
0,8195	-134,9	-597,1
0,82	-168,8	-691,8
0,8205	-198,9	-763,7
0,821	-223,0	-804,9
0,8215	-240,2	-811,6
0,822	-251,0	-786,5
0,8225	-255,1	-735,5
0,823	-250,9	-661,8
0,8235	-236,5	-564,0
0,824	-211,0	-441,1
0,8245	-176,3	-298,0
0,825	-136,5	-145,3
0,8255	-96,6	5,2
0,826	-59,2	145,5
0,8265	-23,3	274,1
0,827	13,6	394,3
0,8275	53,2	509,7
0,828	94,3	619,1
0,8285	133,9	714,3
0,829	168,5	783,6
0,8295	195,6	818,8
0,83	214,3	819,0
0,8305	224,6	789,4
0,831	226,0	735,0
0,8315	217,3	656,0
0,832	197,8	549,9
0,8325	168,7	417,5
0,833	132,8	266,7
0,8335	93,7	109,9
0,834	53,8	-42,3
0,8345	14,3	-185,1
0,835	-24,4	-319,0
0,8355	-63,1	-445,3
0,836	-101,8	-563,5
0,8365	-139,3	-669,2
0,837	-172,3	-754,2
0,8375	-197,3	-808,8
0,838	-211,7	-827,3
0,8385	-214,9	-810,7
0,839	-208,8	-765,7
0,8395	-195,7	-697,9
0,84	-176,6	-607,3
0,8405	-150,9	-491,6
0,841	-117,8	-352,6
0,8415	-78,5	-199,7
0,842	-35,5	-45,9
0,8425	7,9	98,6
0,843	49,5	230,0
0,8435	88,3	350,9
0,844	124,7	466,2
0,8445	158,8	577,5
0,845	190,3	679,2
0,8455	217,0	759,9
0,846	236,3	808,8
0,8465	247,0	821,6
0,847	248,5	801,5
0,8475	241,3	754,5
0,848	225,8	683,6
0,8485	202,4	587,6
0,849	171,3	464,8
0,8495	133,5	320,0
0,85	91,1	163,6
0,8505	46,8	7,2
0,851	2,8	-142,1
0,8515	-39,5	-282,7
0,852	-79,9	-414,8
0,8525	-118,1	-537,6
0,853	-153,6	-647,9
0,8535	-185,3	-740,0
0,854	-211,8	-805,8
0,8545	-230,8	-838,1
0,855	-240,8	-835,1
0,8555	-241,5	-801,1
0,856	-233,5	-742,0
0,8565	-217,0	-659,9
0,857	-191,8	-552,7
0,8575	-157,9	-420,3
0,858	-117,8	-269,8
0,8585	-76,0	-113,5
0,859	-36,9	36,9
0,8595	-2,7	174,8
0,86	27,9	300,5
0,8605	58,0	418,4
0,861	89,8	532,1
0,8615	123,3	638,9
0,862	156,0	729,3
0,8625	184,2	791,0
0,863	205,0	816,9
0,8635	216,9	807,7
0,864	219,8	769,2
0,8645	214,6	706,5
0,865	201,4	619,7
0,8655	180,1	506,6
0,866	150,8	369,6
0,8665	115,3	217,6
0,867	75,9	62,7
0,8675	35,3	-86,1
0,868	-5,2	-225,6
0,8685	-45,3	-356,4
0,869	-85,0	-478,5
0,8695	-123,3	-590,0
0,87	-158,1	-686,3
0,8705	-187,0	-760,4
0,871	-208,4	-804,6
0,8715	-222,1	-814,7
0,872	-229,1	-792,9
0,8725	-230,4	-744,3
0,873	-225,9	-672,2
0,8735	-214,0	-575,2
0,874	-193,0	-452,0
0,8745	-162,7	-307,5
0,875	-124,8	-152,9
0,8755	-82,9	-0,6
0,876	-40,3	140,9
0,8765	1,4	269,6
0,877	42,3	389,1
0,8775	83,2	503,8
0,878	124,3	613,7
0,8785	163,4	711,0
0,879	197,0	783,3
0,8795	221,3	821,0
0,88	235,2	821,8
0,8805	240,1	790,5
0,881	238,7	733,7
0,8815	231,8	653,9
0,882	216,6	549,4
0,8825	190,3	419,3
0,883	152,9	269,8
0,8835	108,3	112,4
0,884	61,3	-41,7
0,8845	15,1	-186,7
0,885	-29,1	-321,8
0,8855	-71,4	-447,6
0,886	-112,4	-563,1
0,8865	-152,2	-665,2
0,887	-189,5	-747,2
0,8875	-221,1	-801,0
0,888	-243,4	-820,9
0,8885	-254,3	-807,5
0,889	-254,3	-766,7
0,8895	-244,7	-703,1
0,89	-226,5	-616,6
0,8905	-200,3	-504,5
0,891	-167,0	-367,9
0,8915	-128,1	-215,5
0,892	-85,7	-59,9
0,8925	-41,8	87,5
0,893	1,7	221,3
0,8935	43,2	342,8
0,894	82,2	456,8
0,8945	119,1	566,9
0,895	153,9	668,9
0,8955	185,2	751,8
0,896	210,5	804,0
0,8965	228,2	820,3
0,897	237,9	803,5
0,8975	240,2	759,6
0,898	235,9	692,0
0,8985	224,8	599,5
0,899	205,3	480,3
0,8995	176,2	338,4
0,9	137,8	184,2
0,9005	93,3	29,5
0,901	46,7	-117,6
0,9015	0,7	-254,9
0,902	-43,4	-383,0
0,9025	-84,8	-501,7
0,903	-122,4	-608,5
0,9035	-154,8	-698,2
0,904	-180,4	-763,2
0,9045	-197,7	-796,6
0,905	-206,2	-796,5
0,9055	-206,5	-766,5
0,906	-199,9	-712,5
0,9065	-186,8	-636,1
0,907	-166,3	-535,4
0,9075	-138,0	-410,0
0,908	-103,1	-266,4
0,9085	-65,8	-115,9
0,909	-31,5	30,4
0,9095	-3,6	166,5
0,91	19,4	291,4
0,9105	42,1	408,8
0,911	68,5	522,0
0,9115	99,0	628,5
0,912	130,9	718,7
0,9125	159,6	780,7
0,913	181,6	807,6
0,9135	194,9	800,8
0,914	200,1	766,1
0,9145	198,2	708,2
0,915	189,2	626,4
0,9155	172,0	517,8
0,916	146,0	383,8
0,9165	112,2	233,5
0,917	73,3	78,9
0,9175	31,8	-70,5
0,918	-10,1	-211,3
0,9185	-50,8	-343,6
0,919	-89,3	-467,3
0,9195	-124,7	-580,5
0,92	-155,7	-678,7
0,9205	-181,2	-754,2
0,921	-200,0	-799,2
0,9215	-210,9	-809,0
0,922	-213,8	-786,3
0,9225	-209,8	-737,8
0,923	-199,6	-668,3
0,9235	-182,9	-577,4
0,924	-158,1	-462,9
0,9245	-124,5	-326,6
0,925	-83,5	-176,8
0,9255	-38,5	-24,8
0,926	6,6	119,8
0,9265	49,1	252,8
0,927	88,5	375,6
0,9275	125,8	492,3
0,928	162,0	603,5
0,9285	196,6	703,3
0,929	227,1	779,9
0,9295	250,4	823,2
0,93	263,9	829,3
0,9305	267,3	801,7
0,931	261,1	746,1
0,9315	245,3	665,0
0,932	219,4	557,7
0,9325	183,5	424,9
0,933	139,7	274,0
0,9335	92,1	116,8
0,934	44,3	-35,5
0,9345	-1,2	-178,0
0,935	-43,8	-310,4
0,9355	-83,4	-434,0
0,936	-119,8	-548,4
0,9365	-152,7	-650,3
0,937	-181,7	-733,1
0,9375	-206,1	-789,2
0,938	-224,8	-812,8
0,9385	-236,1	-803,6
0,939	-239,0	-766,4
0,9395	-233,1	-705,6
0,94	-218,0	-621,3
0,9405	-193,2	-511,4
0,941	-159,0	-377,3
0,9415	-117,1	-227,4
0,942	-70,8	-74,1
0,9425	-23,5	72,0
0,943	22,4	205,7
0,9435	66,1	328,0
0,944	107,8	443,0
0,9445	147,5	552,7
0,945	184,3	652,8
0,9455	215,3	733,1
0,946	237,7	783,9
0,9465	249,6	800,8
0,947	250,8	785,9
0,9475	242,4	744,5
0,948	226,2	679,4
0,9485	203,2	589,5
0,949	173,2	472,9
0,9495	136,6	333,2
0,95	94,7	180,6
0,9505	50,2	27,2
0,951	5,3	-119,3
0,9515	-38,4	-256,6
0,952	-80,1	-384,9
0,9525	-119,1	-503,9
0,953	-154,5	-611,4
0,9535	-185,2	-702,8
0,954	-209,7	-770,5
0,9545	-226,5	-807,0
0,955	-234,8	-809,5
0,9555	-235,3	-781,4
0,956	-228,5	-728,2
0,9565	-214,4	-651,7
0,957	-191,5	-550,1
0,9575	-158,9	-423,1
0,958	-118,9	-277,2
0,9585	-76,4	-124,7
0,959	-36,3	22,4
0,9595	-0,6	157,5
0,96	32,2	280,8
0,9605	65,1	396,7
0,961	100,1	509,0
0,9615	137,0	616,1
0,962	173,2	708,8
0,9625	204,5	775,0
0,963	227,3	806,3
0,9635	239,1	802,2
0,964	240,0	767,9
0,9645	231,1	708,8
0,965	212,8	625,4
0,9655	184,4	515,7
0,966	146,1	381,0
0,9665	99,9	229,5
0,967	50,1	73,5
0,9675	0,8	-76,9
0,968	-45,5	-217,7
0,9685	-87,6	-348,8
0,969	-125,8	-470,6
0,9695	-160,6	-582,2
0,97	-191,9	-679,9
0,9705	-218,9	-756,6
0,971	-240,4	-804,1
0,9715	-254,9	-817,8
0,972	-261,3	-799,0
0,9725	-258,8	-753,3
0,973	-247,3	-684,8
0,9735	-226,5	-592,8
0,974	-195,6	-475,0
0,9745	-154,4	-334,4
0,975	-105,5	-180,7
0,9755	-54,0	-26,7
0,976	-4,9	117,7
0,9765	39,7	249,0
0,977	80,5	369,8
0,9775	119,5	485,3
0,978	157,5	596,9
0,9785	193,2	698,3
0,979	223,7	777,3
0,9795	246,1	822,8
0,98	259,1	831,1
0,9805	262,5	806,4
0,981	256,9	755,1
0,9815	242,6	680,1
0,982	219,6	579,6
0,9825	188,5	453,0
0,983	151,1	305,9
0,9835	109,5	149,5
0,984	65,7	-4,8
0,9845	21,1	-150,8
0,985	-23,5	-287,2
0,9855	-66,8	-414,3
0,986	-107,1	-531,6
0,9865	-143,5	-636,6
0,987	-175,1	-724,1
0,9875	-200,7	-786,3
0,988	-218,5	-815,9
0,9885	-227,1	-811,0
0,989	-226,6	-775,5
0,9895	-218,1	-714,8
0,99	-202,4	-630,3
0,9905	-179,4	-520,6
0,991	-149,2	-386,9
0,9915	-113,1	-237,6
0,992	-73,9	-84,9
0,9925	-34,5	60,5
0,993	2,9	193,9
0,9935	37,8	316,5
0,994	71,2	432,7
0,9945	105,0	545,2
0,995	139,4	649,9
0,9955	171,3	736,6
0,996	196,3	793,7
0,9965	211,0	815,0
0,997	213,7	801,8
0,9975	204,6	760,1
0,998	185,2	693,9
0,9985	158,0	602,9
0,999	125,3	485,7
0,9995	89,1	345,8
1	51,3	193,4
1,0005	13,8	40,3
1,001	-21,9	-105,8
1,0015	-55,7	-242,7
1,002	-88,0	-370,9
1,0025	-120,0	-490,5
1,003	-153,1	-599,6
1,0035	-187,0	-693,1
1,004	-217,9	-762,8
1,0045	-240,8	-801,2
1,005	-252,3	-805,1
1,0055	-252,9	-778,5
1,006	-244,7	-727,5
1,0065	-229,1	-654,7
1,007	-205,5	-557,8
1,0075	-173,3	-435,4
1,008	-133,9	-292,5
1,0085	-90,3	-140,5
1,009	-45,9	8,6
1,0095	-2,8	147,6
1,01	38,3	275,7
1,0105	77,8	396,2
1,011	117,0	512,8
1,0115	155,8	624,2
1,012	192,8	721,7
1,0125	224,9	793,0
1,013	249,1	829,3
1,0135	263,3	829,3
1,014	267,2	798,3
1,0145	261,1	741,3
1,015	245,3	659,5
1,0155	220,1	551,3
1,016	186,0	417,8
1,0165	145,3	266,9
1,017	100,8	110,1
1,0175	55,3	-43,0
1,018	10,3	-188,3
1,0185	-33,3	-325,7
1,019	-75,2	-455,3
1,0195	-115,0	-575,0
1,02	-151,9	-679,3
1,0205	-183,9	-760,0
1,021	-208,3	-809,1
1,0215	-223,1	-822,9
1,022	-228,1	-803,9
1,0225	-224,4	-758,8
1,023	-213,7	-692,0
1,0235	-196,4	-603,0
1,024	-172,2	-489,3
1,0245	-141,2	-353,2
1,025	-104,4	-203,7
1,0255	-63,8	-52,4
1,026	-21,6	91,7
1,0265	20,6	224,9
1,027	61,8	349,0
1,0275	101,7	467,3
1,028	140,3	580,1
1,0285	175,9	681,0
1,029	205,5	758,8
1,0295	225,8	804,2
1,03	235,1	813,9
1,0305	233,9	791,1
1,031	224,0	741,4
1,0315	207,0	667,6
1,032	183,6	568,4
1,0325	154,1	443,2
1,033	119,5	297,3
1,0335	81,4	141,9
1,034	41,0	-11,8
1,0345	-0,4	-156,9
1,035	-42,3	-292,2
1,0355	-84,3	-418,5
1,036	-125,2	-535,8
1,0365	-163,6	-641,7
1,037	-196,8	-729,8
1,0375	-222,3	-792,2
1,038	-238,9	-821,8
1,0385	-247,2	-817,3
1,039	-248,7	-783,1
1,0395	-244,5	-724,3
1,04	-233,8	-642,2
1,0405	-214,8	-534,3
1,041	-187,0	-401,3
1,0415	-152,4	-250,7
1,042	-114,6	-94,7
1,0425	-76,1	55,2
1,043	-37,6	192,7
1,0435	1,3	318,3
1,044	41,1	436,2
1,0445	80,7	549,8
1,045	118,0	655,8
1,0455	150,5	744,0
1,046	176,5	802,8
1,0465	195,3	826,1
1,047	207,2	815,5
1,0475	212,9	777,2
1,048	213,6	715,1
1,0485	208,7	628,3
1,049	195,8	513,8
1,0495	172,5	373,8
1,05	138,7	218,4
1,0505	97,2	60,2
1,051	52,2	-92,0
1,0515	7,5	-235,4
1,052	-35,5	-370,4
1,0525	-76,8	-496,7
1,053	-116,4	-612,0
1,0535	-153,0	-710,7
1,054	-183,9	-784,4
1,0545	-206,2	-825,0
1,055	-218,0	-829,8
1,0555	-219,6	-803,0
1,056	-212,6	-751,1
1,0565	-198,6	-677,0
1,057	-178,3	-578,6
1,0575	-151,7	-454,3
1,058	-118,9	-309,2
1,0585	-81,5	-154,5
1,059	-41,8	-2,4
1,0595	-1,4	138,7
1,06	38,4	267,1
1,0605	77,5	386,4
1,061	115,9	501,0
1,0615	153,3	610,8
1,062	187,5	707,8
1,0625	215,3	779,8
1,063	233,3	817,3
1,0635	240,7	818,3
1,064	238,4	788,1
1,0645	228,2	732,4
1,065	210,7	652,8
1,0655	185,7	547,3
1,066	152,7	416,1
1,0665	112,6	266,4
1,067	67,1	110,3
1,0675	18,3	-41,9
1,068	-32,3	-185,3
1,0685	-82,2	-319,1
1,069	-128,6	-443,9
1,0695	-169,0	-558,4
1,07	-202,1	-659,5
1,0705	-227,4	-740,9
1,071	-245,1	-794,9
1,0715	-254,4	-815,6
1,072	-254,8	-803,1
1,0725	-246,4	-762,5
1,073	-230,4	-698,3
1,0735	-207,4	-610,4
1,074	-177,2	-496,8
1,0745	-139,8	-359,8
1,075	-97,5	-209,0
1,0755	-53,8	-56,5
1,076	-11,7	87,6
1,0765	28,0	219,7
1,077	65,7	341,6
1,0775	101,9	457,9
1,078	136,6	569,9
1,0785	168,3	672,3
1,079	194,6	753,6
1,0795	213,2	803,1
1,08	222,6	816,4
1,0805	223,0	797,0
1,081	215,6	750,9
1,0815	201,2	681,2
1,082	179,4	586,3
1,0825	148,6	464,8
1,083	108,4	321,3
1,0835	61,3	166,7
1,084	12,1	12,6
1,0845	-34,5	-134,1
1,085	-76,4	-271,4
1,0855	-113,2	-399,6
1,086	-145,4	-518,0
1,0865	-173,5	-623,9
1,087	-197,4	-712,0
1,0875	-216,0	-775,1
1,088	-227,2	-806,3
1,0885	-230,1	-803,6
1,089	-225,3	-771,4
1,0895	-213,9	-715,0
1,09	-196,7	-636,3
1,0905	-173,5	-533,0
1,091	-143,8	-405,5
1,0915	-107,7	-260,2
1,092	-66,6	-108,6
1,0925	-23,3	38,3
1,093	19,7	174,3
1,0935	60,9	299,0
1,094	100,2	415,8
1,0945	138,2	528,1
1,095	174,2	633,8
1,0955	205,9	723,4
1,096	230,3	785,2
1,0965	245,2	812,0
1,097	250,5	804,3
1,0975	247,8	768,0
1,098	238,5	707,3
1,0985	222,7	622,2
1,099	199,2	510,2
1,0995	167,8	373,3
1,1	129,5	220,9
1,1005	86,4	65,3
1,101	40,8	-84,5
1,1015	-5,3	-225,4
1,102	-50,6	-358,1
1,1025	-94,4	-483,0
1,103	-136,0	-598,4
1,1035	-173,5	-699,0
1,104	-204,5	-776,0
1,1045	-226,4	-820,6
1,105	-238,1	-829,3
1,1055	-240,1	-805,7
1,106	-233,9	-756,6
1,1065	-220,4	-685,7
1,107	-199,6	-591,0
1,1075	-171,1	-470,3
1,108	-135,8	-327,3
1,1085	-96,9	-173,1
1,109	-58,7	-20,9
1,1095	-24,6	119,9
1,11	5,1	247,7
1,1105	32,3	366,5
1,111	59,4	481,7
1,1115	87,1	593,3
1,112	114,3	693,4
1,1125	138,8	769,4
1,113	158,2	811,3
1,1135	171,1	816,5
1,114	177,2	789,8
1,1145	176,9	737,4
1,115	170,3	661,2
1,1155	156,4	558,8
1,116	134,2	430,0
1,1165	103,9	281,7
1,117	67,9	125,6
1,1175	29,2	-27,1
1,118	-9,8	-170,8
1,1185	-48,4	-305,0
1,119	-86,3	-429,9
1,1195	-122,6	-545,1
1,12	-155,7	-647,3
1,1205	-183,6	-730,3
1,121	-204,4	-785,7
1,1215	-216,3	-807,6
1,122	-218,7	-796,0
1,1225	-212,8	-756,1
1,123	-201,5	-693,1
1,1235	-186,2	-607,8
1,124	-166,3	-498,3
1,1245	-140,6	-366,2
1,125	-108,9	-219,2
1,1255	-72,8	-68,4
1,126	-34,7	76,7
1,1265	3,8	211,6
1,127	42,2	336,9
1,1275	80,8	456,0
1,128	118,8	570,8
1,1285	153,5	676,3
1,129	181,3	760,9
1,1295	199,9	813,4
1,13	208,8	828,7
1,1305	209,6	809,8
1,131	203,1	763,4
1,1315	189,3	693,2
1,132	167,5	598,3
1,1325	137,9	477,3
1,133	102,5	333,9
1,1335	64,0	178,8
1,134	24,7	23,1
1,1345	-14,2	-125,7
1,135	-51,6	-265,4
1,1355	-87,4	-395,7
1,136	-121,5	-515,4
1,1365	-154,2	-622,4
1,137	-184,6	-712,0
1,1375	-210,1	-777,3
1,138	-227,5	-811,4
1,1385	-234,9	-812,2
1,139	-232,5	-783,6
1,1395	-222,5	-730,6
1,14	-206,3	-654,1
1,1405	-183,8	-551,5
1,141	-154,3	-422,4
1,1415	-118,0	-273,9
1,142	-76,4	-118,1
1,1425	-32,4	33,1
1,143	11,6	172,7
1,1435	54,0	299,6
1,144	95,3	417,4
1,1445	135,8	530,0
1,145	173,9	635,9
1,1455	206,9	726,2
1,146	232,6	789,1
1,1465	250,1	817,2
1,147	259,3	810,6
1,1475	259,6	775,0
1,148	250,4	714,7
1,1485	231,7	629,6
1,149	203,6	516,9
1,1495	167,2	378,6
1,15	125,2	223,9
1,1505	80,9	65,8
1,151	37,1	-85,9
1,1515	-5,4	-227,1
1,152	-46,8	-358,2
1,1525	-87,2	-479,8
1,153	-126,0	-591,4
1,1535	-161,9	-689,2
1,154	-192,8	-766,0
1,1545	-216,1	-813,4
1,155	-230,0	-826,4
1,1555	-234,5	-806,6
1,156	-230,9	-759,9
1,1565	-220,2	-690,2
1,157	-202,1	-596,5
1,1575	-175,9	-476,8
1,158	-141,8	-334,8
1,1585	-101,9	-180,8
1,159	-60,0	-27,8
1,1595	-19,1	114,8
1,16	19,3	244,4
1,1605	55,3	364,3
1,161	90,2	479,2
1,1615	124,2	590,3
1,162	156,3	690,4
1,1625	183,3	767,0
1,163	200,9	810,0
1,1635	205,8	816,6
1,164	198,5	791,1
1,1645	182,4	739,3
1,165	160,9	663,5
1,1655	135,3	562,0
1,166	105,3	434,4
1,1665	70,9	286,9
1,167	33,7	131,0
1,1675	-4,4	-22,2
1,168	-41,3	-166,6
1,1685	-75,9	-300,7
1,169	-108,2	-425,0
1,1695	-138,4	-539,2
1,17	-166,6	-640,8
1,1705	-191,7	-724,3
1,171	-211,4	-782,2
1,1715	-223,8	-808,1
1,172	-228,6	-801,2
1,1725	-227,4	-765,8
1,173	-221,2	-706,3
1,1735	-208,9	-623,0
1,174	-188,2	-513,2
1,1745	-158,0	-378,3
1,175	-120,1	-227,2
1,1755	-77,7	-72,7
1,176	-34,1	74,2
1,1765	8,6	208,2
1,177	49,7	330,3
1,1775	89,6	445,3
1,178	128,8	556,3
1,1785	166,3	659,6
1,179	199,9	744,3
1,1795	226,6	799,0
1,18	244,2	817,8
1,1805	251,8	802,5
1,181	249,7	758,8
1,1815	238,0	690,6
1,182	216,4	597,2
1,1825	184,6	477,5
1,183	143,9	335,5
1,1835	97,8	181,3
1,184	50,1	26,6
1,1845	3,0	-120,7
1,185	-42,8	-258,4
1,1855	-87,7	-387,8
1,186	-131,2	-509,1
1,1865	-171,7	-620,5
1,187	-207,1	-716,0
1,1875	-235,0	-786,8
1,188	-253,3	-824,7
1,1885	-261,2	-826,9
1,189	-259,1	-797,4
1,1895	-248,8	-742,2
1,19	-231,2	-664,1
1,1905	-206,0	-561,5
1,191	-172,9	-433,5
1,1915	-132,9	-286,1
1,192	-89,1	-130,8
1,1925	-44,6	20,3
1,193	-1,8	159,8
1,1935	38,1	286,9
1,194	75,5	405,7
1,1945	111,9	520,2
1,195	147,9	629,0
1,1955	182,2	723,2
1,196	210,8	790,4
1,1965	229,7	822,3
1,197	236,7	818,5
1,1975	232,3	784,5
1,198	218,8	725,5
1,1985	198,0	642,5
1,199	170,7	533,2
1,1995	137,0	398,7
1,2	97,8	247,1
1,2005	54,0	90,2
1,201	6,6	-62,0
1,2015	-42,8	-205,4
1,202	-91,8	-339,5
1,2025	-137,5	-464,1
1,203	-178,3	-577,3
1,2035	-213,2	-674,9
1,204	-241,0	-750,1
1,2045	-260,5	-795,7
1,205	-270,5	-807,5
1,2055	-270,3	-787,8
1,206	-260,5	-742,3
1,2065	-241,8	-674,7
1,207	-214,9	-584,1
1,2075	-180,3	-468,2
1,208	-139,5	-329,9
1,2085	-95,0	-179,3
1,209	-49,8	-28,8
1,2095	-6,1	112,1
1,21	35,2	240,2
1,2105	74,2	358,1
1,211	111,8	470,5
1,2115	148,8	579,0
1,212	184,6	678,0
1,2125	216,1	756,0
1,213	239,0	802,3
1,2135	250,6	812,7
1,214	250,6	790,7
1,2145	240,4	741,8
1,215	221,7	668,8
1,2155	195,7	570,0
1,216	163,7	444,8
1,2165	127,1	299,0
1,217	86,6	143,8
1,2175	42,8	-9,7
1,218	-3,3	-155,6
1,2185	-50,2	-292,7
1,219	-95,3	-420,8
1,2195	-136,6	-538,9
1,22	-172,8	-644,2
1,2205	-202,9	-730,8
1,221	-225,4	-790,7
1,2215	-238,8	-817,3
1,222	-242,9	-809,9
1,2225	-239,4	-773,5
1,223	-230,6	-713,3
1,2235	-217,1	-630,3
1,224	-198,2	-522,1
1,2245	-172,9	-389,5
1,225	-141,6	-240,3
1,2255	-105,3	-86,4
1,226	-65,7	61,3
1,2265	-24,5	197,4
1,227	17,4	322,5
1,2275	59,4	440,9
1,228	100,6	555,3
1,2285	139,6	661,9
1,229	173,8	750,1
1,2295	200,6	807,7
1,23	218,2	828,4
1,2305	226,3	814,1
1,231	225,7	771,0
1,2315	217,0	703,8
1,232	200,4	612,4
1,2325	175,6	494,8
1,233	143,0	354,1
1,2335	104,9	200,0
1,234	64,4	44,1
1,2345	23,6	-105,4
1,235	-17,0	-246,2
1,2355	-57,1	-377,9
1,236	-96,0	-499,8
1,2365	-132,8	-609,6
1,237	-166,2	-702,6
1,2375	-195,1	-771,7
1,238	-217,6	-809,8
1,2385	-231,9	-814,1
1,239	-237,2	-787,9
1,2395	-233,6	-737,0
1,24	-221,7	-663,6
1,2405	-201,5	-565,6
1,241	-172,6	-441,7
1,2415	-135,7	-297,1
1,242	-93,3	-143,2
1,2425	-49,1	7,9
1,243	-6,2	148,7
1,2435	34,2	277,5
1,244	72,6	397,7
1,2445	110,1	513,1
1,245	147,2	622,6
1,2455	182,4	717,8
1,246	212,7	786,8
1,2465	234,8	821,3
1,247	247,1	820,4
1,2475	248,4	789,4
1,248	237,9	733,5
1,2485	214,6	653,0
1,249	179,4	545,5
1,2495	135,8	411,9
1,25	88,8	260,5
1,2505	42,8	104,0
1,251	0,4	-47,3
1,2515	-38,3	-189,3
1,252	-74,9	-322,7
1,2525	-110,8	-448,9
1,253	-145,9	-567,1
1,2535	-179,0	-672,5
1,254	-207,5	-756,6
1,2545	-229,1	-809,9
1,255	-241,8	-826,8
1,2555	-245,0	-809,0
1,256	-239,4	-763,0
1,2565	-226,5	-694,2
1,257	-206,3	-602,3
1,2575	-178,6	-485,3
1,258	-143,6	-345,6
1,2585	-103,3	-192,8
1,259	-60,7	-39,6
1,2595	-18,4	103,8
1,26	21,9	234,0
1,2605	59,7	353,9
1,261	95,2	468,7
1,2615	128,8	580,2
1,262	160,1	682,3
1,2625	186,9	762,9
1,263	206,8	810,9
1,2635	218,0	821,7
1,264	221,0	798,7
1,2645	216,8	748,2
1,265	205,9	673,8
1,2655	187,1	574,9
1,266	159,4	451,3
1,2665	123,5	308,3
1,267	82,2	156,1
1,2675	39,0	5,4
1,268	-3,2	-137,7
1,2685	-43,2	-272,2
1,269	-81,3	-399,1
1,2695	-117,5	-518,5
1,27	-151,7	-627,8
1,2705	-182,3	-720,2
1,271	-207,4	-785,9
1,2715	-224,8	-817,0
1,272	-233,5	-812,3
1,2725	-233,8	-776,8
1,273	-225,8	-717,0
1,2735	-209,3	-634,4
1,274	-183,6	-526,8
1,2745	-149,3	-394,5
1,275	-108,9	-245,1
1,2755	-65,7	-90,8
1,276	-22,5	57,2
1,2765	18,6	193,0
1,277	56,9	317,1
1,2775	92,8	433,8
1,278	127,3	546,0
1,2785	160,8	650,6
1,279	191,4	737,1
1,2795	216,0	793,7
1,28	231,6	813,7
1,2805	236,6	798,8
1,281	230,7	755,8
1,2815	214,0	690,2
1,282	187,1	602,1
1,2825	151,4	489,0
1,283	109,6	352,9
1,2835	64,8	202,7
1,284	19,6	49,8
1,2845	-24,8	-96,9
1,285	-68,6	-234,4
1,2855	-112,1	-362,6
1,286	-154,3	-482,1
1,2865	-193,0	-591,9
1,287	-225,8	-687,9
1,2875	-251,0	-762,4
1,288	-267,0	-807,1
1,2885	-272,9	-817,4
1,289	-269,2	-795,3
1,2895	-257,0	-746,4
1,29	-237,5	-673,6
1,2905	-211,2	-576,0
1,291	-178,9	-452,8
1,2915	-142,6	-309,2
1,292	-105,8	-156,1
1,2925	-72,2	-5,3
1,293	-43,4	135,6
1,2935	-18,3	264,5
1,294	6,3	384,5
1,2945	33,5	499,2
1,295	64,5	608,2
1,2955	97,6	704,3
1,296	129,3	776,1
1,2965	156,0	814,7
1,297	175,5	817,8
1,2975	186,5	789,9
1,298	188,8	736,3
1,2985	182,2	658,0
1,299	166,3	552,9
1,2995	141,5	421,6
1,3	109,5	271,6
1,3005	72,7	115,1
1,301	33,7	-37,3
1,3015	-5,6	-180,6
1,302	-44,0	-314,3
1,3025	-80,7	-438,6
1,303	-114,6	-552,9
1,3035	-144,0	-653,7
1,304	-166,7	-734,3
1,3045	-181,3	-787,1
1,305	-188,5	-806,9
1,3055	-189,7	-794,3
1,306	-185,7	-754,4
1,3065	-176,0	-691,4
1,307	-159,3	-605,5
1,3075	-134,8	-494,7
1,308	-103,1	-360,9
1,3085	-66,4	-212,7
1,309	-27,9	-61,8
1,3095	9,4	82,2
1,31	44,2	215,3
1,3105	76,7	338,5
1,311	108,3	455,8
1,3115	140,3	568,8
1,312	171,8	672,3
1,3125	200,4	754,8
1,313	222,8	805,1
1,3135	236,4	818,3
1,314	240,4	797,5
1,3145	235,4	749,3
1,315	222,6	677,5
1,3155	202,1	580,9
1,316	173,6	458,2
1,3165	137,8	314,6
1,317	96,9	161,3
1,3175	53,6	9,8
1,318	9,3	-133,3
1,3185	-35,8	-267,5
1,319	-81,1	-393,8
1,3195	-125,2	-512,5
1,32	-166,2	-620,7
1,3205	-202,0	-712,6
1,321	-230,4	-779,2
1,3215	-249,3	-812,7
1,322	-257,7	-810,9
1,3225	-256,2	-778,5
1,323	-246,2	-721,6
1,3235	-228,4	-641,9
1,324	-202,8	-537,1
1,3245	-169,4	-406,9
1,325	-129,4	-258,8
1,3255	-85,4	-105,6
1,326	-41,3	40,9
1,3265	0,0	174,4
1,327	37,6	295,6
1,3275	72,4	409,4
1,328	105,8	520,0
1,3285	137,9	625,5
1,329	167,2	716,4
1,3295	190,8	780,2
1,33	206,8	808,7
1,3305	214,5	801,7
1,331	214,6	764,9
1,3315	208,0	703,5
1,332	194,3	618,0
1,3325	171,9	506,1
1,333	140,0	369,7
1,3335	100,2	217,7
1,334	55,2	62,1
1,3345	7,4	-87,8
1,335	-42,2	-228,3
1,3355	-92,0	-359,3
1,336	-139,8	-480,9
1,3365	-183,6	-591,6
1,337	-221,9	-687,1
1,3375	-253,1	-760,3
1,338	-275,1	-803,3
1,3385	-286,2	-812,0
1,339	-286,4	-789,2
1,3395	-277,3	-740,5
1,34	-259,9	-669,4
1,3405	-234,4	-574,4
1,341	-200,3	-453,8
1,3415	-158,7	-311,6
1,342	-112,3	-158,0
1,3425	-64,3	-5,3
1,343	-17,4	137,8
1,3435	27,1	268,5
1,344	68,9	389,5
1,3445	108,6	505,2
1,345	146,9	615,8
1,3455	183,7	714,2
1,346	217,4	788,7
1,3465	244,9	829,7
1,347	262,5	834,7
1,3475	267,5	807,8
1,348	259,4	754,2
1,3485	239,8	675,5
1,349	210,6	569,3
1,3495	173,8	435,8
1,35	132,2	282,1
1,3505	88,8	120,2
1,351	46,0	-38,7
1,3515	5,1	-187,9
1,352	-34,7	-325,8
1,3525	-74,2	-452,5
1,353	-113,4	-567,8
1,3535	-150,8	-669,3
1,354	-184,0	-750,9
1,3545	-210,0	-805,0
1,355	-227,3	-825,8
1,3555	-235,3	-813,8
1,356	-235,2	-774,3
1,3565	-227,5	-711,5
1,357	-212,0	-625,0
1,3575	-187,8	-512,5
1,358	-155,1	-375,6
1,3585	-115,7	-223,2
1,359	-72,8	-67,9
1,3595	-29,8	79,6
1,36	11,7	214,4
1,3605	51,4	337,9
1,361	89,8	454,4
1,3615	127,0	566,4
1,362	161,9	669,2
1,3625	191,8	752,0
1,363	214,0	803,4
1,3635	226,7	818,3
1,364	229,7	799,7
1,3645	224,0	754,1
1,365	210,7	684,8
1,3655	189,7	590,9
1,366	160,6	470,7
1,3665	124,2	328,8
1,367	82,6	175,9
1,3675	38,8	23,3
1,368	-4,4	-121,9
1,3685	-45,6	-257,8
1,369	-83,8	-385,1
1,3695	-118,9	-503,4
1,37	-151,5	-610,3
1,3705	-181,0	-700,3
1,371	-206,0	-765,6
1,3715	-223,7	-799,2
1,372	-232,7	-798,7
1,3725	-233,9	-768,6
1,373	-229,8	-714,4
1,3735	-221,2	-638,0
1,374	-206,5	-537,2
1,3745	-183,0	-411,3
1,375	-150,3	-267,0
1,3755	-111,1	-116,1
1,376	-68,9	30,0
1,3765	-26,6	165,2
1,377	14,6	289,7
1,3775	54,9	407,8
1,378	95,0	523,5
1,3785	134,5	634,3
1,379	171,1	729,4
1,3795	200,8	795,5
1,38	220,8	824,2
1,3805	230,1	816,1
1,381	229,9	778,1
1,3815	221,9	715,8
1,382	206,6	629,5
1,3825	183,1	517,0
1,383	151,6	380,0
1,3835	113,8	227,4
1,384	72,0	71,2
1,3845	28,6	-79,7
1,385	-14,8	-221,3
1,3855	-57,6	-353,7
1,386	-98,9	-476,9
1,3865	-137,8	-589,5
1,387	-172,4	-687,3
1,3875	-200,7	-763,1
1,388	-221,2	-809,1
1,3885	-233,4	-821,1
1,389	-237,8	-801,3
1,3895	-235,3	-755,4
1,39	-226,7	-687,1
1,3905	-212,4	-594,8
1,391	-191,8	-476,4
1,3915	-165,1	-335,3
1,392	-134,1	-181,9
1,3925	-100,8	-28,5
1,393	-67,0	115,8
1,3935	-32,8	247,5
1,394	2,8	368,9
1,3945	41,4	483,8
1,395	82,9	593,1
1,3955	123,9	690,3
1,396	158,3	764,4
1,3965	181,0	805,7
1,397	190,7	811,4
1,3975	189,9	785,8
1,398	182,6	734,9
1,3985	170,6	660,6
1,399	153,6	560,5
1,3995	130,0	433,7
1,4	99,9	285,7
1,4005	65,3	128,4
1,401	28,9	-26,6
1,4015	-6,7	-172,5
1,402	-40,1	-308,1
1,4025	-71,0	-433,7
1,403	-99,3	-548,8
1,4035	-125,6	-650,8
1,404	-149,7	-734,3
1,4045	-170,4	-791,6
1,405	-185,7	-816,4
1,4055	-194,1	-808,2
1,406	-195,4	-771,7
1,4065	-189,8	-711,7
1,407	-176,8	-628,6
1,4075	-154,9	-519,6
1,408	-124,4	-385,4
1,4085	-87,3	-234,4
1,409	-47,3	-79,1
1,4095	-7,7	69,4
1,41	29,9	205,5
1,4105	66,0	329,9
1,411	101,7	447,3
1,4115	137,0	560,2
1,412	169,3	664,8
1,4125	194,3	750,2
1,413	208,2	804,7
1,4135	210,0	822,4
1,414	202,3	805,8
1,4145	189,2	761,3
1,415	173,0	693,2
1,4155	154,1	600,9
1,416	131,2	482,5
1,4165	103,6	341,6
1,417	72,1	188,3
1,4175	39,1	34,5
1,418	6,1	-111,9
1,4185	-26,6	-248,8
1,419	-59,6	-377,2
1,4195	-93,3	-496,9
1,42	-126,8	-605,9
1,4205	-158,0	-699,1
1,421	-184,8	-768,7
1,4215	-205,2	-807,1
1,422	-217,6	-811,5
1,4225	-222,2	-785,5
1,423	-219,3	-735,0
1,4235	-209,3	-662,0
1,424	-190,8	-563,6
1,4245	-162,1	-438,3
1,425	-123,6	-291,5
1,4255	-78,4	-135,2
1,426	-32,2	18,1
1,4265	10,4	160,4
1,427	47,4	290,0
1,4275	79,8	410,1
1,428	109,8	524,5
1,4285	138,7	631,8
1,429	165,7	723,2
1,4295	188,8	787,0
1,43	205,5	815,3
1,4305	214,7	808,3
1,431	216,4	771,6
1,4315	211,3	710,0
1,432	199,5	624,2
1,4325	180,5	512,4
1,433	153,9	376,6
1,4335	120,0	225,8
1,434	80,5	71,7
1,4345	38,0	-76,5
1,435	-5,5	-215,6
1,4355	-48,3	-346,0
1,436	-88,8	-468,0
1,4365	-125,5	-580,1
1,437	-157,1	-678,1
1,4375	-182,7	-755,3
1,438	-200,8	-803,4
1,4385	-209,8	-817,5
1,439	-209,1	-799,2
1,4395	-200,3	-754,0
1,44	-185,6	-685,8
1,4405	-166,2	-593,8
1,441	-141,6	-476,1
1,4415	-111,3	-336,0
1,442	-75,8	-183,7
1,4425	-37,1	-31,4
1,443	2,3	111,4
1,4435	40,7	241,4
1,444	77,6	361,1
1,4445	113,5	475,2
1,445	148,6	584,7
1,4455	181,4	683,2
1,446	209,0	759,0
1,4465	228,8	802,0
1,447	239,5	809,6
1,4475	241,4	786,0
1,448	235,4	736,9
1,4485	222,0	664,3
1,449	201,0	565,6
1,4495	172,4	439,8
1,45	136,9	292,5
1,4505	96,3	135,4
1,451	52,9	-20,0
1,4515	8,5	-167,1
1,452	-35,3	-304,3
1,4525	-77,5	-431,9
1,453	-117,5	-549,3
1,4535	-154,4	-653,8
1,454	-187,1	-740,0
1,4545	-213,7	-799,9
1,455	-232,2	-826,7
1,4555	-241,2	-819,0
1,456	-240,8	-781,7
1,4565	-232,0	-720,3
1,457	-215,2	-635,8
1,4575	-190,2	-526,2
1,458	-157,4	-391,9
1,4585	-119,3	-240,5
1,459	-79,7	-84,5
1,4595	-41,3	65,4
1,46	-4,7	203,4
1,4605	31,0	329,8
1,461	66,8	448,9
1,4615	102,7	563,4
1,462	137,8	669,8
1,4625	169,5	757,5
1,463	195,1	814,6
1,4635	212,1	834,6
1,464	219,4	819,6
1,4645	217,3	776,1
1,465	206,7	708,3
1,4655	187,7	615,3
1,466	160,3	495,0
1,4665	125,0	351,0
1,467	83,8	193,7
1,4675	39,8	35,7
1,468	-4,1	-114,5
1,4685	-46,7	-254,6
1,469	-87,5	-385,0
1,4695	-126,8	-506,1
1,47	-164,1	-616,3
1,4705	-198,0	-711,2
1,471	-226,6	-783,6
1,4715	-247,8	-825,6
1,472	-259,8	-833,1
1,4725	-262,0	-808,0
1,473	-254,6	-755,6
1,4735	-238,2	-678,7
1,474	-213,1	-576,5
1,4745	-179,9	-449,0
1,475	-140,2	-302,1
1,4755	-96,5	-147,4
1,476	-51,3	3,3
1,4765	-6,1	142,7
1,477	38,1	270,0
1,4775	81,0	389,1
1,478	121,3	503,8
1,4785	157,8	613,1
1,479	188,9	708,5
1,4795	212,8	777,8
1,48	228,2	811,9
1,4805	234,7	810,2
1,481	233,8	778,1
1,4815	226,3	721,3
1,482	211,5	640,6
1,4825	187,4	533,4
1,483	153,1	400,4
1,4835	110,5	249,3
1,484	63,6	92,6
1,4845	16,1	-59,4
1,485	-29,6	-202,1
1,4855	-72,8	-335,0
1,486	-113,4	-458,8
1,4865	-151,1	-572,7
1,487	-185,1	-673,3
1,4875	-214,0	-753,8
1,488	-235,9	-805,7
1,4885	-248,8	-822,9
1,489	-252,0	-806,3
1,4895	-246,4	-761,8
1,49	-233,6	-694,6
1,4905	-215,1	-604,4
1,491	-192,0	-489,1
1,4915	-164,3	-350,4
1,492	-131,9	-197,6
1,4925	-95,5	-43,0
1,493	-57,7	103,3
1,4935	-20,8	237,3
1,494	14,0	360,7
1,4945	48,1	477,8
1,495	83,2	590,0
1,4955	119,1	691,9
1,496	153,0	772,2
1,4965	181,0	820,2
1,497	200,7	831,8
1,4975	212,0	810,6
1,498	216,1	762,4
1,4985	213,1	689,8
1,499	201,2	590,7
1,4995	178,6	463,5
1,5	145,7	314,0
1,5005	105,7	154,3
1,501	62,8	-2,6
1,5015	20,3	-149,2
1,502	-20,0	-284,3
1,5025	-57,6	-409,4
1,503	-92,7	-525,0
1,5035	-126,1	-629,0
1,504	-158,6	-716,4
1,5045	-190,3	-780,0
1,505	-218,9	-812,9
1,5055	-240,0	-812,8
1,506	-250,2	-782,6
1,5065	-247,8	-726,8
1,507	-233,2	-646,5
1,5075	-208,0	-539,8
1,508	-175,4	-407,3
1,5085	-138,6	-256,9
1,509	-99,9	-100,5
1,5095	-60,3	50,7
1,51	-20,4	190,6
1,5105	19,4	318,8
1,511	59,0	439,0
1,5115	98,3	554,1
1,512	136,8	661,1
1,5125	172,1	749,9
1,513	201,1	808,3
1,5135	221,4	829,1
1,514	232,5	814,1
1,5145	235,3	770,8
1,515	230,3	705,0
1,5155	217,2	616,6
1,516	195,1	502,9
1,5165	164,2	365,3
1,517	126,5	212,9
1,5175	84,5	57,3
1,518	40,5	-92,9
1,5185	-3,3	-234,9
1,519	-45,3	-368,2
1,5195	-84,3	-492,1
1,52	-120,6	-604,5
1,5205	-154,6	-700,8
1,521	-185,1	-774,0
1,5215	-209,6	-816,7
1,522	-226,0	-825,1
1,5225	-232,9	-801,8
1,523	-230,3	-752,2
1,5235	-218,4	-679,3
1,524	-197,3	-581,6
1,5245	-167,6	-458,0
1,525	-130,7	-313,3
1,5255	-89,3	-158,3
1,526	-46,3	-5,5
1,5265	-4,1	136,9
1,527	35,9	266,7
1,5275	73,8	387,1
1,528	110,4	502,5
1,5285	146,3	612,7
1,529	180,5	709,9
1,5295	209,9	781,8
1,53	230,9	818,4
1,5305	241,1	817,8
1,531	240,4	784,9
1,5315	230,8	725,9
1,532	213,8	643,2
1,5325	189,5	535,5
1,533	158,1	403,4
1,5335	120,9	254,0
1,534	80,4	98,8
1,5345	39,2	-52,1
1,535	-1,5	-194,1
1,5355	-41,9	-326,8
1,536	-82,0	-450,5
1,5365	-121,2	-564,5
1,537	-157,3	-665,2
1,5375	-188,3	-746,1
1,538	-212,1	-798,8
1,5385	-227,3	-817,3
1,539	-234,1	-802,6
1,5395	-233,7	-760,4
1,54	-226,7	-695,6
1,5405	-212,6	-608,0
1,541	-190,2	-495,2
1,5415	-159,3	-359,0
1,542	-122,5	-208,3
1,5425	-84,1	-55,7
1,543	-47,4	88,8
1,5435	-13,6	221,1
1,544	19,0	343,3
1,5445	52,5	460,5
1,545	87,7	574,8
1,5455	123,0	680,2
1,546	155,1	764,5
1,5465	180,3	815,7
1,547	196,3	829,2
1,5475	203,3	808,8
1,548	202,1	761,3
1,5485	193,3	690,1
1,549	176,3	593,9
1,5495	150,5	471,5
1,55	116,3	327,2
1,5505	76,3	171,6
1,551	34,0	15,9
1,5515	-8,1	-132,7
1,552	-49,1	-272,3
1,5525	-89,0	-402,8
1,553	-127,3	-523,3
1,5535	-163,6	-631,0
1,554	-196,6	-720,8
1,5545	-224,5	-785,4
1,555	-244,8	-817,9
1,5555	-255,2	-816,4
1,556	-255,7	-785,0
1,5565	-247,3	-729,0
1,557	-231,1	-650,3
1,5575	-207,3	-546,9
1,558	-175,7	-418,8
1,5585	-137,5	-272,8
1,559	-95,2	-120,5
1,5595	-51,6	27,2
1,56	-8,9	164,3
1,5605	32,1	291,0
1,561	71,9	410,9
1,5615	111,7	527,4
1,562	150,7	637,2
1,5625	186,2	730,0
1,563	213,7	793,0
1,5635	229,8	819,0
1,564	234,2	809,6
1,5645	228,6	771,3
1,565	215,3	709,1
1,5655	195,3	622,8
1,566	168,6	509,9
1,5665	134,9	372,4
1,567	95,9	219,3
1,5675	54,4	62,8
1,568	12,9	-88,5
1,5685	-27,3	-231,2
1,569	-65,6	-364,7
1,5695	-101,3	-488,0
1,57	-134,0	-598,9
1,5705	-163,8	-693,5
1,571	-189,7	-765,5
1,5715	-210,1	-808,0
1,572	-222,2	-817,0
1,5725	-224,4	-794,8
1,573	-217,1	-746,6
1,5735	-201,8	-675,3
1,574	-180,0	-579,8
1,5745	-151,9	-458,1
1,575	-117,6	-314,7
1,5755	-78,5	-160,5
1,576	-37,3	-7,8
1,5765	3,8	134,9
1,577	42,8	265,2
1,5775	79,0	385,2
1,578	112,4	498,4
1,5785	143,5	605,0
1,579	171,9	697,9
1,5795	195,5	766,3
1,58	211,3	801,4
1,5805	216,3	802,2
1,581	210,3	773,8
1,5815	194,8	721,6
1,582	173,0	646,8
1,5825	147,0	546,6
1,583	117,1	419,9
1,5835	84,0	273,3
1,584	48,7	118,2
1,5845	12,8	-34,0
1,585	-22,1	-177,5
1,5855	-55,6	-311,3
1,586	-88,0	-435,9
1,5865	-120,0	-550,6
1,587	-151,3	-652,5
1,5875	-179,9	-735,4
1,588	-203,3	-791,2
1,5885	-219,1	-813,6
1,589	-226,4	-802,6
1,5895	-225,5	-763,7
1,59	-217,2	-701,9
1,5905	-201,4	-617,5
1,591	-177,6	-507,8
1,5915	-145,2	-373,7
1,592	-106,0	-223,4
1,5925	-63,3	-69,7
1,593	-20,8	76,7
1,5935	19,3	210,8
1,594	57,0	334,3
1,5945	93,3	451,5
1,595	128,1	564,7
1,5955	159,0	669,0
1,596	183,3	753,3
1,5965	199,3	805,9
1,597	207,0	821,7
1,5975	207,4	803,4
1,598	201,6	757,7
1,5985	189,9	688,7
1,599	171,9	595,3
1,5995	146,7	475,8
1,6	114,6	334,0
1,6005	77,7	179,8
1,601	38,8	25,0
1,6015	-0,3	-122,9
1,602	-39,8	-261,5
1,6025	-81,3	-391,0
1,603	-124,1	-511,1
1,6035	-166,0	-619,3
1,604	-203,5	-710,4
1,6045	-232,7	-776,9
1,605	-251,2	-811,2
1,6055	-258,0	-810,8
1,606	-254,5	-779,8
1,6065	-242,6	-724,2
1,607	-223,7	-646,5
1,6075	-198,1	-544,9
1,608	-165,3	-418,9
1,6085	-126,1	-274,7
1,609	-82,4	-123,5
1,6095	-36,8	24,0
1,61	8,7	161,8
1,6105	52,8	289,1
1,611	95,4	409,1
1,6115	136,2	524,8
1,612	174,8	633,9
1,6125	209,3	727,3
1,613	237,0	792,7
1,6135	255,8	822,1
1,614	264,8	815,8
1,6145	264,0	779,6
1,615	254,3	718,6
1,6155	235,8	633,2
1,616	208,5	520,9
1,6165	172,7	383,0
1,617	130,8	228,5
1,6175	86,0	70,0
1,618	41,1	-82,3
1,6185	-2,9	-224,5
1,619	-45,9	-356,5
1,6195	-87,7	-478,7
1,62	-127,5	-589,9
1,6205	-163,8	-686,3
1,621	-194,1	-761,1
1,6215	-216,6	-806,3
1,622	-230,6	-817,4
1,6225	-236,6	-796,6
1,623	-235,2	-750,0
1,6235	-226,5	-681,1
1,624	-209,7	-588,2
1,6245	-184,0	-468,8
1,625	-149,6	-325,9
1,6255	-109,0	-170,1
1,626	-66,1	-14,3
1,6265	-24,2	131,2
1,627	14,7	262,8
1,6275	50,7	382,6
1,628	85,0	495,2
1,6285	118,2	602,1
1,629	149,5	697,7
1,6295	176,4	771,0
1,63	196,4	812,2
1,6305	207,4	818,3
1,631	208,0	793,0
1,6315	198,1	741,6
1,632	178,4	665,8
1,6325	150,5	563,8
1,633	116,5	435,7
1,6335	79,3	288,2
1,634	42,1	132,4
1,6345	6,3	-20,8
1,635	-29,9	-165,7
1,6355	-68,9	-301,3
1,636	-110,7	-427,9
1,6365	-152,6	-544,4
1,637	-190,8	-648,0
1,6375	-222,2	-732,6
1,638	-243,7	-790,2
1,6385	-253,9	-814,3
1,639	-253,2	-804,2
1,6395	-243,6	-765,5
1,64	-226,9	-703,9
1,6405	-203,6	-620,1
1,641	-173,4	-511,7
1,6415	-136,4	-379,4
1,642	-93,5	-230,6
1,6425	-46,9	-77,3
1,643	0,6	70,0
1,6435	46,1	205,6
1,644	87,9	329,8
1,6445	126,1	446,7
1,645	161,5	558,7
1,6455	194,7	661,9
1,646	224,4	746,0
1,6465	247,8	799,8
1,647	262,2	818,0
1,6475	266,8	803,0
1,648	261,7	760,5
1,6485	247,6	693,8
1,649	224,4	601,3
1,6495	192,3	480,8
1,65	152,8	336,9
1,6505	108,7	180,6
1,651	63,0	24,0
1,6515	17,7	-125,2
1,652	-26,5	-265,3
1,6525	-69,3	-396,9
1,653	-110,6	-519,1
1,6535	-149,9	-629,4
1,654	-186,0	-722,2
1,6545	-216,3	-789,7
1,655	-237,9	-824,5
1,6555	-249,1	-824,3
1,656	-249,5	-793,5
1,6565	-240,1	-738,3
1,657	-221,9	-661,1
1,6575	-195,2	-559,5
1,658	-160,3	-432,3
1,6585	-119,1	-285,3
1,659	-75,0	-130,7
1,6595	-31,7	19,7
1,66	8,4	159,1
1,6605	45,0	286,5
1,661	78,9	405,2
1,6615	111,9	518,6
1,662	144,7	625,5
1,6625	176,2	717,7
1,663	203,2	783,1
1,6635	222,2	812,9
1,664	230,4	806,7
1,6645	226,8	770,9
1,665	212,3	711,8
1,6655	188,9	630,2
1,666	158,5	523,0
1,6665	122,3	390,9
1,667	81,0	241,4
1,6675	36,5	86,5
1,668	-8,9	-63,9
1,6685	-53,2	-205,3
1,669	-95,2	-337,7
1,6695	-134,1	-461,6
1,67	-169,4	-575,9
1,6705	-200,2	-676,4
1,671	-224,9	-755,5
1,6715	-241,6	-804,6
1,672	-249,2	-818,7
1,6725	-248,0	-799,6
1,673	-239,3	-753,9
1,6735	-224,1	-686,2
1,674	-202,1	-595,7
1,6745	-172,2	-480,0
1,675	-134,1	-341,1
1,6755	-90,0	-188,8
1,676	-43,7	-35,5
1,6765	0,9	108,8
1,677	41,7	240,0
1,6775	78,3	360,4
1,678	112,1	474,2
1,6785	144,2	582,7
1,679	174,7	680,4
1,6795	202,2	756,3
1,68	224,6	800,6
1,6805	240,0	810,0
1,681	247,5	788,0
1,6815	246,2	739,9
1,682	234,9	667,8
1,6825	213,1	569,5
1,683	181,2	444,2
1,6835	141,4	297,4
1,684	96,8	140,6
1,6845	50,5	-14,5
1,685	3,6	-160,9
1,6855	-44,3	-297,1
1,686	-93,0	-423,3
1,6865	-141,1	-539,8
1,687	-185,8	-644,0
1,6875	-224,4	-730,4
1,688	-254,5	-790,8
1,6885	-274,5	-818,3
1,689	-283,6	-811,8
1,6895	-282,4	-776,3
1,69	-272,1	-716,9
1,6905	-253,2	-634,5
1,691	-225,4	-526,7
1,6915	-188,7	-394,0
1,692	-144,5	-244,1
1,6925	-96,3	-89,3
1,693	-47,9	59,0
1,6935	-1,7	194,9
1,694	41,6	318,9
1,6945	82,9	435,5
1,695	122,9	547,9
1,6955	161,3	653,2
1,696	196,1	741,2
1,6965	224,9	800,1
1,697	246,0	823,3
1,6975	257,9	812,2
1,698	259,9	772,6
1,6985	251,1	708,5
1,699	231,0	618,8
1,6995	199,3	501,8
1,7	156,8	361,0
1,7005	106,7	206,9
1,701	53,4	51,5
1,7015	1,2	-97,0
1,702	-48,3	-236,3
1,7025	-94,6	-367,1
1,703	-137,6	-489,1
1,7035	-176,4	-599,8
1,704	-209,6	-694,5
1,7045	-235,9	-765,8
1,705	-253,7	-806,3
1,7055	-261,9	-812,8
1,706	-260,5	-788,5
1,7065	-250,8	-738,9
1,707	-233,6	-666,4
1,7075	-209,1	-569,1
1,708	-176,8	-445,6
1,7085	-137,2	-301,1
1,709	-92,2	-147,2
1,7095	-45,3	3,3
1,71	0,0	141,7
1,7105	41,6	266,8
1,711	79,7	383,0
1,7115	115,6	495,6
1,712	149,4	604,3
1,7125	180,3	700,5
1,713	206,2	771,4
1,7135	225,5	807,7
1,714	236,4	808,0
1,7145	237,8	777,5
1,715	229,5	721,4
1,7155	212,3	640,8
1,716	187,0	533,3
1,7165	154,2	399,8
1,717	114,8	248,1
1,7175	70,9	90,9
1,718	24,9	-61,1
1,7185	-21,8	-203,1
1,719	-68,8	-335,2
1,7195	-115,1	-458,2
1,72	-159,2	-571,1
1,7205	-198,6	-670,4
1,721	-231,3	-749,3
1,7215	-256,2	-799,7
1,722	-272,2	-816,5
1,7225	-278,9	-800,7
1,723	-276,7	-757,5
1,7235	-266,1	-691,1
1,724	-247,4	-600,9
1,7245	-220,2	-484,9
1,725	-184,4	-345,7
1,7255	-141,6	-192,8
1,726	-94,6	-38,4
1,7265	-46,3	107,7
1,727	1,3	241,8
1,7275	46,8	365,7
1,728	89,8	483,3
1,7285	130,2	596,0
1,729	167,5	698,5
1,7295	200,0	779,3
1,73	224,5	827,1
1,7305	238,9	836,5
1,731	243,3	810,8
1,7315	239,3	757,0
1,732	227,9	679,1
1,7325	209,4	576,5
1,733	183,5	448,3
1,7335	150,7	300,1
1,734	112,4	143,3
1,7345	70,1	-10,9
1,735	25,0	-156,4
1,7355	-21,6	-292,6
1,736	-68,0	-420,3
1,7365	-111,8	-539,2
1,737	-150,8	-646,5
1,7375	-183,7	-736,3
1,738	-209,3	-800,1
1,7385	-226,4	-830,8
1,739	-234,4	-826,6
1,7395	-233,8	-792,5
1,74	-225,7	-734,4
1,7405	-210,0	-653,7
1,741	-185,6	-547,4
1,7415	-151,8	-415,4
1,742	-110,0	-264,7
1,7425	-63,8	-107,9
1,743	-17,7	42,8
1,7435	25,2	181,0
1,744	64,0	307,0
1,7445	99,7	425,2
1,745	134,1	539,3
1,7455	167,5	646,6
1,746	197,8	737,4
1,7465	221,7	799,5
1,747	236,3	825,7
1,7475	241,0	816,5
1,748	235,7	777,9
1,7485	220,4	714,7
1,749	195,0	626,8
1,7495	160,2	512,0
1,75	118,0	372,8
1,7505	71,3	218,6
1,751	23,8	62,1
1,7515	-21,3	-87,8
1,752	-62,4	-227,9
1,7525	-99,3	-358,5
1,753	-132,1	-479,9
1,7535	-161,5	-590,6
1,754	-187,6	-686,7
1,7545	-209,7	-761,6
1,755	-226,0	-807,7
1,7555	-234,3	-820,3
1,756	-233,8	-801,0
1,7565	-224,9	-754,5
1,757	-208,2	-683,5
1,7575	-183,8	-586,7
1,758	-152,2	-463,4
1,7585	-114,3	-318,8
1,759	-72,4	-163,9
1,7595	-29,3	-10,9
1,76	12,8	132,3
1,7605	52,3	263,5
1,761	88,4	385,1
1,7615	121,0	500,5
1,762	150,2	609,3
1,7625	175,8	704,5
1,763	196,8	775,1
1,7635	212,0	812,0
1,764	220,3	813,5
1,7645	222,2	784,0
1,765	217,8	729,3
1,7655	206,6	650,6
1,766	186,9	545,8
1,7665	158,0	415,1
1,767	121,2	265,8
1,7675	79,6	109,7
1,768	36,7	-42,6
1,7685	-5,4	-186,2
1,769	-46,4	-320,8
1,7695	-86,5	-446,6
1,77	-125,8	-562,6
1,7705	-162,8	-664,8
1,771	-195,2	-746,6
1,7715	-220,5	-800,2
1,772	-236,8	-820,0
1,7725	-243,8	-806,6
1,773	-241,9	-765,5
1,7735	-231,8	-701,3
1,774	-213,6	-613,9
1,7745	-187,0	-500,7
1,775	-152,3	-363,3
1,7755	-111,4	-210,6
1,776	-67,1	-55,5
1,7765	-22,7	91,3
1,777	19,4	225,0
1,7775	58,3	347,2
1,778	95,0	462,8
1,7785	130,8	574,2
1,779	165,3	676,6
1,7795	195,9	758,8
1,78	219,1	809,7
1,7805	232,4	824,3
1,781	235,8	805,7
1,7815	230,1	759,3
1,782	216,1	688,3
1,7825	194,2	591,1
1,783	163,8	467,0
1,7835	125,5	321,0
1,784	81,1	164,5
1,7845	33,5	9,3
1,785	-14,5	-137,4
1,7855	-62,2	-274,3
1,786	-110,1	-402,0
1,7865	-158,1	-520,8
1,787	-204,2	-628,3
1,7875	-244,9	-718,6
1,788	-276,8	-783,6
1,7885	-297,4	-815,8
1,789	-305,8	-813,4
1,7895	-302,7	-780,7
1,79	-289,7	-723,7
1,7905	-267,7	-644,2
1,791	-236,7	-539,9
1,7915	-196,4	-410,5
1,792	-148,7	-262,5
1,7925	-98,0	-108,2
1,793	-49,5	40,4
1,7935	-6,4	176,8
1,794	32,0	301,2
1,7945	68,4	417,8
1,795	105,1	530,5
1,7955	142,0	637,1
1,796	177,2	728,4
1,7965	208,0	792,4
1,797	231,4	821,3
1,7975	245,0	814,8
1,798	247,8	778,2
1,7985	240,0	716,2
1,799	222,5	629,2
1,7995	196,2	515,4
1,8	162,4	377,4
1,8005	123,8	224,7
1,801	82,7	69,3
1,8015	41,1	-79,9
1,802	-0,7	-220,2
1,8025	-42,6	-351,7
1,803	-84,4	-474,7
1,8035	-124,3	-587,5
1,804	-159,4	-685,4
1,8045	-186,9	-761,2
1,805	-205,9	-807,0
1,8055	-216,5	-819,0
1,806	-219,6	-799,2
1,8065	-215,2	-752,8
1,807	-203,0	-683,0
1,8075	-182,4	-588,3
1,808	-154,4	-467,8
1,8085	-121,6	-326,1
1,809	-87,3	-174,1
1,8095	-53,8	-24,3
1,81	-21,5	115,5
1,8105	10,3	244,0
1,811	42,6	365,0
1,8115	76,3	482,4
1,812	111,2	595,7
1,8125	145,6	696,9
1,813	175,7	773,8
1,8135	198,1	816,4
1,814	211,3	822,1
1,8145	215,9	795,7
1,815	213,2	743,4
1,8155	203,6	667,3
1,816	186,5	565,7
1,8165	161,6	438,0
1,817	130,1	290,7
1,8175	94,5	135,2
1,818	57,1	-17,8
1,8185	18,4	-162,9
1,819	-21,7	-299,5
1,8195	-63,2	-427,7
1,82	-104,7	-546,1
1,8205	-143,9	-651,3
1,821	-178,8	-737,3
1,8215	-207,0	-795,8
1,822	-226,3	-820,8
1,8225	-235,6	-811,8
1,823	-235,1	-773,9
1,8235	-225,6	-712,0
1,824	-208,2	-626,5
1,8245	-183,5	-515,3
1,825	-152,1	-380,6
1,8255	-115,6	-230,8
1,826	-76,0	-77,7
1,8265	-35,0	68,9
1,827	6,3	204,5
1,8275	47,3	330,3
1,828	88,0	450,1
1,8285	127,3	565,9
1,829	163,5	672,5
1,8295	193,7	758,8
1,83	214,2	813,3
1,8305	222,4	831,1
1,831	218,8	814,8
1,8315	206,8	770,9
1,832	190,2	703,1
1,8325	170,5	609,8
1,833	146,8	489,1
1,8335	117,5	344,6
1,834	82,5	187,1
1,8345	43,2	28,8
1,835	1,8	-122,4
1,8355	-39,5	-264,8
1,836	-79,5	-399,0
1,8365	-117,2	-523,8
1,837	-152,2	-635,8
1,8375	-183,9	-728,9
1,838	-210,6	-795,6
1,8385	-230,0	-828,8
1,839	-240,3	-827,2
1,8395	-241,5	-795,4
1,84	-234,3	-739,6
1,8405	-218,9	-661,9
1,841	-195,1	-559,7
1,8415	-163,0	-432,0
1,842	-124,1	-284,5
1,8425	-81,1	-128,6
1,843	-36,9	23,8
1,8435	6,1	164,9
1,844	46,5	293,3
1,8445	84,7	412,4
1,845	121,7	525,9
1,8455	157,9	632,5
1,846	191,2	723,8
1,8465	218,5	788,4
1,847	237,4	818,5
1,8475	247,3	813,6
1,848	248,2	779,1
1,8485	239,5	720,1
1,849	221,0	637,2
1,8495	192,7	528,3
1,85	156,3	394,7
1,8505	114,4	244,6
1,851	70,2	89,5
1,8515	26,4	-61,2
1,852	-15,7	-203,6
1,8525	-55,5	-337,3
1,853	-92,8	-461,8
1,8535	-127,7	-575,9
1,854	-159,8	-675,6
1,8545	-187,9	-754,0
1,855	-209,8	-803,1
1,8555	-223,5	-818,5
1,856	-228,7	-802,3
1,8565	-225,6	-760,2
1,857	-215,0	-695,5
1,8575	-196,7	-606,3
1,858	-170,3	-490,3
1,8585	-136,4	-350,4
1,859	-96,8	-197,0
1,8595	-54,3	-43,2
1,86	-12,0	101,5
1,8605	28,0	233,6
1,861	65,9	355,8
1,8615	102,9	472,5
1,862	139,6	584,5
1,8625	174,4	685,4
1,863	204,4	763,3
1,8635	226,4	807,5
1,864	238,4	815,0
1,8645	240,7	790,2
1,865	234,1	739,4
1,8655	219,5	665,1
1,866	196,9	565,1
1,8665	165,9	438,6
1,867	127,0	291,2
1,8675	82,2	134,5
1,868	34,3	-19,8
1,8685	-13,7	-165,1
1,869	-60,1	-300,2
1,8695	-104,6	-425,4
1,87	-147,3	-540,7
1,8705	-187,8	-643,6
1,871	-223,9	-728,2
1,8715	-252,2	-786,2
1,872	-270,0	-811,0
1,8725	-276,7	-801,9
1,873	-273,6	-764,2
1,8735	-261,9	-703,4
1,874	-241,8	-620,3
1,8745	-212,8	-512,3
1,875	-175,2	-379,7
1,8755	-131,9	-230,3
1,876	-86,6	-76,8
1,8765	-42,3	69,8
1,877	-0,5	204,0
1,8775	38,8	327,3
1,878	76,7	444,5
1,8785	113,8	558,2
1,879	149,9	664,3
1,8795	182,8	751,1
1,88	208,5	806,6
1,8805	224,1	824,6
1,881	228,9	807,3
1,8815	224,7	761,0
1,882	213,3	690,0
1,8825	195,7	594,2
1,883	170,9	472,4
1,8835	138,9	329,2
1,884	100,9	175,1
1,8845	59,2	21,4
1,885	16,1	-124,8
1,8855	-27,1	-262,0
1,886	-69,1	-390,9
1,8865	-108,5	-511,0
1,887	-143,8	-619,9
1,8875	-174,0	-712,4
1,888	-198,2	-781,1
1,8885	-214,9	-818,6
1,889	-223,2	-822,0
1,8895	-223,5	-795,0
1,89	-216,8	-743,1
1,8905	-203,6	-668,6
1,891	-182,8	-569,2
1,8915	-153,6	-443,8
1,892	-116,9	-297,9
1,8925	-75,2	-143,0
1,893	-32,3	8,7
1,8935	9,2	149,4
1,894	48,1	277,7
1,8945	85,0	397,1
1,895	121,0	511,8
1,8955	156,3	620,8
1,896	189,1	715,3
1,8965	216,0	782,9
1,897	233,9	815,2
1,8975	241,6	811,7
1,898	239,8	778,2
1,8985	229,9	720,1
1,899	212,6	638,1
1,8995	187,5	529,8
1,9	154,1	396,1
1,9005	113,7	245,5
1,901	68,9	90,0
1,9015	22,8	-60,5
1,902	-22,4	-201,9
1,9025	-66,0	-334,0
1,903	-107,5	-457,3
1,9035	-146,7	-570,5
1,904	-182,6	-669,8
1,9045	-214,0	-748,1
1,905	-238,7	-797,1
1,9055	-254,8	-811,7
1,906	-261,3	-793,1
1,9065	-258,8	-747,5
1,907	-248,0	-679,4
1,9075	-229,0	-588,4
1,908	-202,0	-472,3
1,9085	-167,8	-333,7
1,909	-129,1	-182,0
1,9095	-88,9	-29,9
1,91	-49,8	112,5
1,9105	-12,8	241,7
1,911	22,2	360,3
1,9115	54,9	474,1
1,912	85,0	584,7
1,9125	111,7	686,2
1,913	132,6	766,2
1,9135	145,4	813,8
1,914	149,3	824,7
1,9145	146,3	802,7
1,915	139,0	754,1
1,9155	128,4	681,5
1,916	113,3	582,9
1,9165	91,0	456,8
1,917	60,3	309,0
1,9175	23,1	151,2
1,918	-16,3	-4,6
1,9185	-53,2	-151,4
1,919	-85,2	-288,3
1,9195	-111,8	-415,8
1,92	-134,4	-533,2
1,9205	-154,7	-637,9
1,921	-173,0	-724,5
1,9215	-188,2	-785,4
1,922	-198,3	-813,8
1,9225	-202,0	-808,5
1,923	-198,8	-774,3
1,9235	-188,7	-716,6
1,924	-171,2	-636,1
1,9245	-145,1	-530,4
1,925	-109,7	-399,8
1,9255	-66,9	-251,7
1,926	-20,8	-98,3
1,9265	24,1	49,0
1,927	65,1	184,2
1,9275	101,7	307,7
1,928	135,1	423,3
1,9285	167,3	534,4
1,929	199,1	638,0
1,9295	228,9	724,6
1,93	253,1	782,8
1,9305	267,8	805,8
1,931	271,6	794,7
1,9315	264,4	755,5
1,932	247,5	692,3
1,9325	222,2	604,8
1,933	189,2	490,6
1,9335	149,7	352,2
1,934	105,8	199,2
1,9345	59,8	44,0
1,935	13,8	-104,3
1,9355	-31,1	-242,8
1,936	-74,2	-371,5
1,9365	-114,8	-490,8
1,937	-152,2	-599,6
1,9375	-185,3	-693,7
1,938	-212,4	-765,6
1,9385	-231,4	-807,2
1,939	-240,4	-814,6
1,9395	-239,1	-790,7
1,94	-228,9	-741,2
1,9405	-211,9	-668,9
1,941	-189,3	-571,6
1,9415	-160,9	-447,4
1,942	-127,0	-301,2
1,9425	-89,4	-144,6
1,943	-50,3	9,5
1,9435	-11,3	152,5
1,944	27,0	282,2
1,9445	63,9	401,4
1,945	99,1	513,9
1,9455	132,5	619,7
1,946	163,5	711,7
1,9465	190,0	779,1
1,947	209,7	813,4
1,9475	220,8	813,3
1,948	222,9	783,3
1,9485	217,1	728,1
1,949	203,5	648,8
1,9495	181,8	543,1
1,95	151,8	411,7
1,9505	114,9	262,1
1,951	74,1	105,9
1,9515	32,3	-46,8
1,952	-9,2	-191,7
1,9525	-50,9	-328,6
1,953	-93,8	-457,3
1,9535	-137,7	-575,4
1,954	-179,9	-678,1
1,9545	-216,6	-758,2
1,955	-243,7	-808,0
1,9555	-258,1	-822,8
1,956	-259,6	-804,3
1,9565	-250,5	-759,1
1,957	-233,2	-692,0
1,9575	-209,3	-602,7
1,958	-179,1	-488,3
1,9585	-142,7	-350,7
1,959	-101,8	-199,0
1,9595	-58,6	-45,9
1,96	-15,2	98,7
1,9605	27,3	230,9
1,961	68,5	352,7
1,9615	107,9	468,6
1,962	145,2	580,0
1,9625	178,8	681,3
1,963	206,4	760,4
1,9635	225,5	806,8
1,964	235,0	816,4
1,9645	235,1	793,3
1,965	227,2	744,0
1,9655	212,1	671,4
1,966	189,4	573,4
1,9665	159,1	448,6
1,967	122,2	302,3
1,9675	81,2	146,4
1,968	38,7	-7,3
1,9685	-3,8	-152,2
1,969	-46,0	-287,5
1,9695	-87,7	-413,9
1,97	-128,4	-531,3
1,9705	-166,7	-636,9
1,971	-200,2	-724,8
1,9715	-226,5	-786,8
1,972	-243,4	-815,8
1,9725	-250,2	-810,2
1,973	-247,5	-774,9
1,9735	-236,6	-715,6
1,974	-218,2	-634,0
1,9745	-192,2	-527,6
1,975	-158,4	-396,4
1,9755	-117,6	-246,9
1,976	-72,3	-91,3
1,9765	-26,5	58,5
1,977	16,8	195,0
1,9775	56,0	317,8
1,978	92,0	431,7
1,9785	126,3	541,1
1,979	159,0	643,6
1,9795	188,5	729,1
1,98	211,8	785,8
1,9805	226,6	807,4
1,981	232,6	795,5
1,9815	230,7	755,9
1,982	221,5	692,9
1,9825	204,5	605,8
1,983	178,6	492,2
1,9835	144,3	354,1
1,984	103,6	201,2
1,9845	59,8	45,8
1,985	15,6	-102,9
1,9855	-27,5	-242,0
1,986	-69,0	-371,8
1,9865	-108,7	-492,8
1,987	-146,7	-603,8
1,9875	-181,9	-700,8
1,988	-212,0	-775,8
1,9885	-234,2	-819,5
1,989	-246,5	-827,3
1,9895	-248,8	-801,6
1,99	-242,6	-749,0
1,9905	-229,0	-673,7
1,991	-208,6	-575,0
1,9915	-181,5	-451,8
1,992	-148,2	-308,1
1,9925	-110,0	-154,3
1,993	-69,0	-2,2
1,9935	-27,7	139,8
1,994	12,8	269,2
1,9945	52,7	388,7
1,995	92,4	502,8
1,9955	131,6	612,1
1,996	167,8	709,1
1,9965	197,7	781,9
1,997	218,7	820,9
1,9975	229,8	823,8
1,998	231,4	795,2
1,9985	225,0	740,9
1,999	210,9	662,4
1,9995	189,0	557,7
2	158,8	427,0
2,0005	121,0	277,1
2,001	77,5	119,4
2,0015	31,3	-35,2
2,002	-15,2	-181,1
2,0025	-60,2	-317,6
2,003	-102,5	-444,6
2,0035	-141,4	-561,0
2,004	-176,4	-663,6
2,0045	-206,3	-746,3
2,005	-229,5	-801,3
2,0055	-244,1	-822,6
2,006	-249,4	-810,8
2,0065	-246,1	-772,0
2,007	-234,9	-710,6
2,0075	-215,9	-626,0
2,008	-188,9	-514,8
2,0085	-154,6	-378,2
2,009	-114,6	-225,3
2,0095	-71,9	-68,7
2,01	-29,7	81,1
2,0105	9,4	218,9
2,011	44,4	345,6
2,0115	77,1	465,1
2,012	109,9	579,6
2,0125	142,8	684,0
2,013	172,8	767,2
2,0135	195,5	817,7
2,014	208,6	831,2
2,0145	212,2	811,1
2,015	207,8	763,8
2,0155	196,3	692,9
2,016	177,7	596,6
2,0165	151,6	473,4
2,017	118,7	328,1
2,0175	79,9	171,5
2,018	36,4	15,7
2,0185	-10,9	-132,2
2,019	-60,3	-271,1
2,0195	-109,5	-401,8
2,02	-155,5	-524,1
2,0205	-196,4	-635,0
2,021	-230,5	-728,3
2,0215	-255,9	-795,8
2,022	-271,5	-830,3
2,0225	-277,9	-829,3
2,023	-277,5	-797,1
2,0235	-271,6	-739,5
2,024	-259,0	-658,9
2,0245	-237,0	-553,5
2,025	-203,9	-423,4
2,0255	-160,9	-275,3
2,026	-110,8	-120,3
2,0265	-58,2	30,1
2,027	-6,8	169,3
2,0275	41,0	296,3
2,028	85,3	414,9
2,0285	127,3	529,0
2,029	167,5	636,8
2,0295	204,3	729,0
2,03	234,2	793,6
2,0305	253,5	822,6
2,031	260,8	816,3
2,0315	256,8	780,5
2,032	243,5	720,5
2,0325	222,0	636,6
2,033	193,1	526,2
2,0335	157,0	390,8
2,034	114,0	239,0
2,0345	65,4	82,5
2,035	13,1	-69,3
2,0355	-40,3	-212,5
2,036	-91,9	-346,4
2,0365	-139,2	-470,5
2,037	-180,9	-583,2
2,0375	-216,4	-680,8
2,038	-244,5	-756,4
2,0385	-264,0	-801,8
2,039	-273,9	-812,3
2,0395	-274,7	-790,3
2,04	-267,2	-742,5
2,0405	-251,8	-673,3
2,041	-228,7	-582,3
2,0415	-197,8	-468,5
2,042	-160,4	-334,6
2,0425	-118,6	-188,3
2,043	-74,5	-39,7
2,0435	-30,3	102,9
2,044	12,4	235,4
2,0445	53,4	358,9
2,045	93,6	477,0
2,0455	134,0	590,2
2,046	173,0	691,4
2,0465	206,9	768,9
2,047	231,2	812,3
2,0475	243,6	818,7
2,048	244,3	792,5
2,0485	235,1	739,6
2,049	217,6	661,8
2,0495	192,6	557,6
2,05	160,8	427,1
2,0505	123,0	277,4
2,051	80,6	120,2
2,0515	35,9	-33,7
2,052	-8,6	-178,8
2,0525	-51,2	-314,4
2,053	-91,3	-441,0
2,0535	-128,8	-558,0
2,054	-163,2	-662,2
2,0545	-193,3	-747,2
2,055	-216,9	-804,8
2,0555	-232,3	-828,1
2,056	-239,2	-817,1
2,0565	-238,4	-777,1
2,057	-231,4	-713,7
2,0575	-217,8	-627,3
2,058	-195,9	-515,6
2,0585	-164,6	-379,8
2,059	-124,5	-228,5
2,0595	-77,9	-73,6
2,06	-28,2	74,2
2,0605	21,2	209,8
2,061	67,6	334,3
2,0615	109,7	451,8
2,062	147,7	564,5
2,0625	181,9	668,2
2,063	211,3	752,3
2,0635	233,4	805,9
2,064	246,6	823,5
2,0645	250,3	807,1
2,065	244,9	762,7
2,0655	230,8	693,8
2,066	208,0	599,3
2,0665	176,9	477,6
2,067	139,1	333,1
2,0675	97,3	177,0
2,068	54,1	21,6
2,0685	11,3	-125,7
2,069	-30,6	-263,5
2,0695	-71,4	-392,6
2,07	-110,6	-512,9
2,0705	-147,0	-622,1
2,071	-179,3	-714,5
2,0715	-205,5	-782,2
2,072	-223,9	-817,3
2,0725	-233,7	-817,1
2,073	-235,0	-785,9
2,0735	-228,8	-730,5
2,074	-215,8	-653,8
2,0745	-195,3	-553,5
2,075	-166,6	-427,7
2,0755	-130,5	-281,4
2,076	-89,6	-126,1
2,0765	-46,9	25,8
2,077	-4,8	166,3
2,0775	35,4	294,2
2,078	73,8	412,8
2,0785	110,8	525,9
2,079	146,4	632,6
2,0795	178,9	724,3
2,08	205,6	789,4
2,0805	224,4	819,8
2,081	234,1	814,9
2,0815	234,5	779,8
2,082	225,8	719,3
2,0825	207,9	633,7
2,083	180,6	521,4
2,0835	144,6	384,3
2,084	102,3	231,3
2,0845	56,8	74,6
2,085	11,3	-76,3
2,0855	-32,8	-217,6
2,086	-74,9	-349,3
2,0865	-115,1	-471,4
2,087	-153,4	-582,8
2,0875	-190,0	-680,0
2,088	-224,3	-756,5
2,0885	-254,2	-804,2
2,089	-275,8	-817,8
2,0895	-286,7	-798,9
2,09	-286,3	-753,5
2,0905	-275,6	-685,3
2,091	-255,3	-593,7
2,0915	-225,5	-476,0
2,092	-187,0	-335,2
2,0925	-141,8	-180,9
2,093	-93,0	-26,1
2,0935	-43,9	119,4
2,094	3,9	252,0
2,0945	50,3	374,2
2,095	95,8	490,2
2,0955	140,5	601,0
2,096	182,5	700,3
2,0965	218,1	776,3
2,097	243,8	818,3
2,0975	257,7	822,9
2,098	260,2	794,5
2,0985	253,2	740,3
2,099	237,8	663,4
2,0995	214,2	562,3
2,1	182,0	435,6
2,1005	142,0	288,4
2,101	96,5	131,7
2,1015	48,8	-23,4
2,102	1,8	-170,1
2,1025	-43,2	-306,8
2,103	-86,2	-433,8
2,1035	-127,7	-550,3
2,104	-167,0	-653,9
2,1045	-202,6	-738,8
2,105	-231,7	-797,0
2,1055	-251,4	-821,7
2,106	-260,3	-812,2
2,1065	-258,5	-773,6
2,107	-247,5	-711,0
2,1075	-228,4	-625,4
2,108	-201,7	-514,6
2,1085	-168,2	-379,4
2,109	-130,2	-227,8
2,1095	-91,4	-72,2
2,11	-55,1	76,1
2,1105	-22,4	211,5
2,111	8,4	334,7
2,1115	40,0	450,4
2,112	74,2	562,1
2,1125	110,1	666,4
2,113	144,0	752,2
2,1135	171,3	806,9
2,114	188,9	824,3
2,1145	196,4	807,2
2,115	195,4	762,6
2,1155	186,6	694,8
2,116	169,7	602,4
2,1165	144,2	483,7
2,117	110,7	342,3
2,1175	71,2	188,7
2,118	28,7	34,7
2,1185	-13,8	-111,6
2,119	-53,8	-248,2
2,1195	-90,0	-375,8
2,12	-122,2	-494,7
2,1205	-151,2	-603,6
2,121	-177,3	-697,6
2,1215	-199,0	-768,8
2,122	-214,0	-809,1
2,1225	-220,9	-815,4
2,123	-221,4	-791,3
2,1235	-218,0	-743,1
2,124	-212,3	-672,6
2,1245	-202,8	-577,0
2,125	-185,9	-454,3
2,1255	-159,8	-309,7
2,126	-125,3	-154,6
2,1265	-84,9	-1,5
2,127	-42,1	141,2
2,1275	1,0	271,6
2,128	43,2	392,7
2,1285	85,0	508,2
2,129	125,8	617,5
2,1295	163,1	712,4
2,13	192,5	781,2
2,1305	211,0	815,2
2,131	218,8	813,5
2,1315	218,0	781,5
2,132	210,2	724,6
2,1325	195,2	643,5
2,133	172,1	535,8
2,1335	140,8	402,4
2,134	103,2	251,1
2,1345	62,5	94,4
2,135	22,3	-56,9
2,1355	-15,9	-198,3
2,136	-52,4	-330,0
2,1365	-88,3	-453,1
2,137	-123,5	-566,6
2,1375	-157,2	-667,0
2,138	-187,8	-747,1
2,1385	-213,6	-798,7
2,139	-231,6	-815,8
2,1395	-240,1	-799,6
2,14	-239,2	-755,6
2,1405	-230,4	-688,1
2,141	-214,2	-596,7
2,1415	-189,3	-479,4
2,142	-155,2	-339,7
2,1425	-113,6	-187,3
2,143	-67,9	-34,8
2,1435	-21,7	108,2
2,144	22,7	238,1
2,1445	64,9	357,4
2,145	106,3	471,5
2,1455	148,0	582,3
2,146	188,7	684,1
2,1465	224,9	764,6
2,147	251,9	812,8
2,1475	266,7	824,5
2,148	268,7	803,1
2,1485	259,5	754,6
2,149	240,8	681,9
2,1495	214,0	583,3
2,15	180,8	457,9
2,1505	143,3	311,1
2,151	103,7	154,2
2,1515	63,8	-1,3
2,152	24,1	-148,6
2,1525	-15,0	-286,4
2,153	-53,3	-415,4
2,1535	-90,5	-535,2
2,154	-125,8	-642,9
2,1545	-157,8	-732,5
2,155	-184,4	-795,5
2,1555	-203,6	-825,1
2,156	-214,4	-820,1
2,1565	-217,3	-785,8
2,157	-212,8	-727,9
2,1575	-200,8	-647,4
2,158	-180,4	-541,6
2,1585	-151,1	-410,5
2,159	-114,0	-261,2
2,1595	-72,0	-105,9
2,16	-28,4	44,1
2,1605	14,3	182,8
2,161	54,6	309,8
2,1615	92,8	429,0
2,162	129,1	543,5
2,1625	163,5	650,5
2,163	194,3	740,1
2,1635	218,4	800,4
2,164	233,8	824,3
2,1645	239,8	813,2
2,165	237,2	772,8
2,1655	226,6	707,7
2,166	208,2	617,8
2,1665	181,4	501,5
2,167	147,0	361,7
2,1675	106,8	207,8
2,168	63,5	51,8
2,1685	19,4	-97,6
2,169	-24,2	-236,9
2,1695	-66,3	-366,3
2,17	-106,6	-486,2
2,1705	-145,6	-595,3
2,171	-183,1	-689,6
2,1715	-217,4	-761,6
2,172	-244,9	-803,1
2,1725	-262,4	-810,5
2,173	-269,0	-786,6
2,1735	-265,3	-737,4
2,174	-252,6	-666,3
2,1745	-230,9	-571,2
2,175	-200,3	-450,5
2,1755	-161,3	-308,2
2,176	-116,8	-155,3
2,1765	-69,9	-4,0
2,177	-23,8	137,4
2,1775	19,8	266,7
2,178	60,9	386,6
2,1785	100,3	501,1
2,179	138,2	610,6
2,1795	173,3	707,3
2,18	202,7	779,0
2,1805	223,4	815,3
2,181	233,8	814,1
2,1815	234,2	780,6
2,182	226,3	721,8
2,1825	211,4	640,4
2,183	189,1	534,6
2,1835	158,9	404,6
2,184	121,6	257,0
2,1845	80,0	103,3
2,185	37,3	-46,9
2,1855	-4,3	-188,8
2,186	-44,6	-322,2
2,1865	-83,3	-447,3
2,187	-120,3	-562,8
2,1875	-154,5	-665,2
2,188	-184,4	-747,6
2,1885	-208,5	-801,8
2,189	-225,1	-821,6
2,1895	-233,6	-807,4
2,19	-234,2	-765,0
2,1905	-226,8	-699,0
2,191	-211,3	-609,2
2,1915	-187,2	-493,3
2,192	-154,8	-353,5
2,1925	-116,0	-199,5
2,193	-73,5	-43,8
2,1935	-30,3	102,9
2,194	11,8	236,7
2,1945	51,8	359,1
2,195	90,1	475,3
2,1955	126,9	587,7
2,196	161,2	691,7
2,1965	190,7	776,0
2,197	211,8	828,7
2,1975	221,2	844,0
2,198	218,3	824,8
2,1985	204,9	777,4
2,199	183,9	704,9
2,1995	156,5	605,6
2,2	122,9	477,6
2,2005	84,0	326,1
2,201	42,1	164,0
2,2015	-0,5	5,1
2,202	-42,1	-142,5
2,2025	-81,8	-277,6
2,203	-119,3	-402,0
2,2035	-154,1	-516,6
2,204	-185,9	-620,2
2,2045	-213,9	-707,8
2,205	-235,9	-771,6
2,2055	-249,8	-804,3
2,206	-254,5	-803,6
2,2065	-251,1	-773,3
2,207	-241,8	-718,4
2,2075	-227,4	-640,3
2,208	-207,3	-536,9
2,2085	-180,1	-408,8
2,209	-145,7	-262,7
2,2095	-105,8	-110,2
2,21	-63,1	37,8
2,2105	-20,5	175,0
2,211	20,2	300,5
2,2115	58,8	417,8
2,212	96,0	530,2
2,2125	132,7	635,6
2,213	168,0	725,4
2,2135	199,1	788,1
2,214	223,1	816,3
2,2145	238,3	810,1
2,215	244,6	774,8
2,2155	241,6	714,5
2,216	228,1	628,8
2,2165	202,7	515,6
2,217	166,8	377,4
2,2175	123,7	223,4
2,218	77,8	65,7
2,2185	32,2	-86,6
2,219	-11,3	-229,3
2,2195	-52,2	-362,1
2,22	-90,7	-485,1
2,2205	-128,1	-597,2
2,221	-165,0	-694,7
2,2215	-199,3	-770,2
2,222	-227,1	-815,3
2,2225	-245,3	-825,3
2,223	-254,4	-802,9
2,2235	-256,3	-754,3
2,224	-252,3	-683,2
2,2245	-240,8	-588,5
2,225	-219,8	-468,1
2,2255	-188,7	-325,9
2,226	-148,9	-172,1
2,2265	-103,6	-19,0
2,227	-55,8	124,7
2,2275	-7,7	256,0
2,228	39,7	377,6
2,2285	86,0	493,7
2,229	130,8	604,6
2,2295	172,1	703,0
2,23	207,0	776,9
2,2305	232,3	816,4
2,231	246,8	819,3
2,2315	250,8	790,8
2,232	246,1	737,2
2,2325	233,6	660,4
2,233	212,6	558,2
2,2335	182,7	430,0
2,234	145,8	282,1
2,2345	105,2	126,3
2,235	63,7	-26,4
2,2355	22,6	-170,5
2,236	-18,6	-304,9
2,2365	-60,7	-430,1
2,237	-104,4	-545,8
2,2375	-148,8	-649,0
2,238	-190,3	-733,4
2,2385	-224,3	-790,3
2,239	-247,0	-813,1
2,2395	-256,9	-802,0
2,24	-255,0	-763,0
2,2405	-243,2	-701,2
2,241	-222,4	-617,3
2,2415	-193,2	-508,7
2,242	-156,1	-376,4
2,2425	-113,4	-228,4
2,243	-68,4	-76,6
2,2435	-24,1	68,8
2,244	18,3	203,1
2,2445	59,0	327,4
2,245	98,4	446,1
2,2455	136,6	560,9
2,246	172,0	667,0
2,2465	201,8	752,6
2,247	222,8	806,1
2,2475	232,3	822,4
2,248	230,6	804,9
2,2485	219,9	760,0
2,249	202,6	691,3
2,2495	179,5	597,3
2,25	150,0	476,3
2,2505	114,4	332,5
2,251	75,0	176,9
2,2515	34,1	21,3
2,252	-6,3	-126,4
2,2525	-45,5	-264,5
2,253	-82,7	-393,7
2,2535	-116,9	-514,0
2,254	-147,6	-623,0
2,2545	-174,1	-715,2
2,255	-195,8	-782,2
2,2555	-211,7	-816,8
2,256	-220,8	-817,0
2,2565	-222,7	-787,1
2,257	-217,6	-733,3
2,2575	-204,9	-657,7
2,258	-183,9	-557,3
2,2585	-153,8	-431,1
2,259	-115,6	-284,6
2,2595	-72,7	-129,6
2,26	-29,4	22,0
2,2605	10,7	162,7
2,261	46,7	291,2
2,2615	79,8	410,3
2,262	111,8	523,6
2,2625	143,7	629,6
2,263	174,4	720,0
2,2635	201,0	783,3
2,264	220,5	812,0
2,2645	230,8	806,1
2,265	231,8	771,1
2,2655	224,1	711,8
2,266	208,2	628,7
2,2665	183,8	519,3
2,267	151,2	384,7
2,2675	112,0	233,3
2,268	69,1	77,3
2,2685	25,4	-73,6
2,269	-17,4	-215,3
2,2695	-58,6	-348,2
2,27	-97,4	-472,4
2,2705	-133,0	-586,0
2,271	-164,0	-684,0
2,2715	-189,3	-759,0
2,272	-208,2	-803,7
2,2725	-220,3	-814,6
2,273	-225,8	-794,6
2,2735	-224,5	-749,5
2,274	-216,4	-682,6
2,2745	-200,3	-591,9
2,275	-175,1	-474,9
2,2755	-140,9	-335,0
2,276	-100,2	-182,4
2,2765	-56,6	-30,0
2,277	-13,6	112,9
2,2775	27,5	243,4
2,278	66,6	364,1
2,2785	104,5	479,5
2,279	140,3	590,4
2,2795	170,7	690,3
2,28	191,7	767,1
2,2805	201,6	810,3
2,281	201,7	816,8
2,2815	194,9	791,0
2,282	183,8	739,5
2,2825	168,8	665,1
2,283	148,9	566,1
2,2835	123,0	441,9
2,284	90,9	297,7
2,2845	53,9	144,2
2,285	14,2	-8,0
2,2855	-26,3	-152,7
2,286	-66,1	-288,5
2,2865	-104,6	-415,1
2,287	-140,9	-531,8
2,2875	-174,2	-635,8
2,288	-203,0	-721,7
2,2885	-225,5	-781,5
2,289	-240,3	-809,0
2,2895	-246,9	-803,4
2,29	-245,6	-768,9
2,2905	-237,2	-710,1
2,291	-221,8	-627,7
2,2915	-198,6	-519,7
2,292	-167,1	-387,2
2,2925	-128,5	-238,6
2,293	-85,6	-86,1
2,2935	-40,8	59,7
2,294	4,1	194,2
2,2945	48,4	318,7
2,295	92,5	437,4
2,2955	136,3	552,2
2,296	177,7	658,5
2,2965	212,7	745,3
2,297	236,9	800,8
2,2975	248,7	819,5
2,298	248,7	803,9
2,2985	239,4	760,6
2,299	222,9	693,6
2,2995	200,2	602,0
2,3	171,7	483,8
2,3005	138,0	342,5
2,301	100,6	188,4
2,3015	60,4	33,7
2,302	17,8	-113,7
2,3025	-26,5	-251,8
2,303	-71,0	-381,6
2,3035	-114,2	-502,9
2,304	-154,4	-613,3
2,3045	-190,0	-707,0
2,305	-219,4	-776,1
2,3055	-240,8	-813,3
2,306	-253,5	-816,1
2,3065	-257,7	-788,7
2,307	-254,0	-736,8
2,3075	-242,5	-662,9
2,308	-221,6	-564,1
2,3085	-190,3	-438,8
2,309	-150,4	-292,5
2,3095	-106,2	-137,0
2,31	-62,9	15,0
2,3105	-23,4	155,7
2,311	12,4	283,7
2,3115	46,6	402,6
2,312	81,1	516,1
2,3125	117,0	623,3
2,313	152,8	716,3
2,3135	185,4	783,4
2,314	210,3	816,0
2,3145	224,2	813,1
2,315	226,0	780,1
2,3155	217,2	722,4
2,316	198,8	641,0
2,3165	169,6	533,5
2,317	128,8	401,2
2,3175	78,7	251,7
2,318	24,9	96,7
2,3185	-27,2	-54,5
2,319	-75,1	-197,6
2,3195	-118,1	-331,8
2,32	-156,5	-456,7
2,3205	-190,0	-570,5
2,321	-217,8	-669,6
2,3215	-238,2	-747,6
2,322	-249,8	-796,8
2,3225	-251,8	-812,1
2,323	-245,1	-794,9
2,3235	-231,3	-751,1
2,324	-212,1	-684,8
2,3245	-188,2	-595,2
2,325	-158,8	-479,4
2,3255	-123,8	-340,3
2,326	-84,5	-188,0
2,3265	-43,1	-35,4
2,327	-1,6	108,0
2,3275	39,6	238,9
2,328	80,2	360,2
2,3285	119,7	476,2
2,329	156,3	588,2
2,3295	188,1	689,9
2,33	212,3	769,4
2,3305	226,5	815,8
2,331	230,0	825,5
2,3315	224,6	802,6
2,332	213,3	753,5
2,3325	198,1	680,9
2,333	178,4	583,2
2,3335	152,9	459,4
2,334	121,2	315,0
2,3345	84,2	160,9
2,335	43,8	8,1
2,3355	2,2	-137,1
2,336	-38,8	-273,3
2,3365	-78,0	-401,0
2,337	-114,8	-519,6
2,3375	-148,3	-626,4
2,338	-177,2	-715,9
2,3385	-199,6	-780,3
2,339	-214,1	-813,4
2,3395	-220,4	-814,2
2,34	-219,7	-786,9
2,3405	-212,6	-735,6
2,341	-199,1	-659,8
2,3415	-177,5	-555,6
2,342	-147,1	-423,2
2,3425	-109,4	-271,2
2,343	-67,7	-113,6
2,3435	-25,5	37,0
2,344	15,2	174,6
2,3445	54,2	299,8
2,345	92,0	417,5
2,3455	129,2	531,1
2,346	164,8	637,7
2,3465	196,7	727,1
2,347	221,7	787,4
2,3475	237,3	811,8
2,348	243,1	800,9
2,3485	239,9	760,3
2,349	228,8	694,4
2,3495	209,5	603,3
2,35	181,5	485,7
2,3505	145,4	345,3
2,351	103,7	191,8
2,3515	59,6	36,9
2,352	15,9	-110,9
2,3525	-26,3	-249,1
2,353	-67,1	-377,9
2,3535	-106,7	-497,5
2,354	-144,5	-606,3
2,3545	-178,8	-699,8
2,355	-207,6	-770,5
2,3555	-228,7	-810,6
2,356	-240,9	-816,4
2,3565	-244,1	-790,8
2,357	-239,3	-739,8
2,3575	-227,0	-666,7
2,358	-207,1	-569,5
2,3585	-179,0	-446,6
2,359	-143,1	-302,4
2,3595	-101,5	-147,9
2,36	-57,3	4,7
2,3605	-13,7	147,2
2,361	27,7	277,2
2,3615	66,6	397,8
2,362	104,0	512,6
2,3625	139,7	620,7
2,363	171,8	714,1
2,3635	197,4	781,6
2,364	214,3	814,9
2,3645	221,6	813,7
2,365	219,2	783,0
2,3655	206,9	728,3
2,366	184,9	650,4
2,3665	154,0	546,5
2,367	116,3	416,5
2,3675	74,5	267,1
2,368	31,3	110,4
2,3685	-11,2	-42,6
2,369	-51,9	-186,4
2,3695	-90,6	-320,5
2,37	-127,3	-445,0
2,3705	-161,1	-559,1
2,371	-191,4	-659,2
2,3715	-216,7	-739,1
2,372	-235,4	-791,2
2,3725	-245,9	-809,8
2,373	-248,1	-796,0
2,3735	-243,2	-755,5
2,374	-232,2	-693,0
2,3745	-214,6	-607,9
2,375	-189,0	-496,7
2,3755	-154,9	-360,6
2,376	-113,8	-208,0
2,3765	-68,6	-52,0
2,377	-22,3	96,6
2,3775	23,0	232,6
2,378	65,9	357,0
2,3785	106,0	474,1
2,379	142,9	585,6
2,3795	175,8	686,4
2,38	202,7	765,8
2,3805	222,1	812,8
2,381	233,1	823,4
2,3815	235,8	801,0
2,382	231,0	751,8
2,3825	218,9	678,9
2,383	199,0	580,5
2,3835	170,6	454,7
2,384	134,3	306,5
2,3845	92,7	147,6
2,385	48,9	-9,4
2,3855	5,3	-157,0
2,386	-36,8	-293,8
2,3865	-76,8	-420,6
2,387	-114,8	-537,4
2,3875	-151,2	-642,0
2,388	-184,9	-729,0
2,3885	-213,3	-790,9
2,389	-233,0	-821,0
2,3895	-242,1	-817,8
2,39	-241,1	-785,6
2,3905	-231,5	-729,4
2,391	-214,2	-650,5
2,3915	-188,3	-546,2
2,392	-154,0	-416,2
2,3925	-113,7	-267,0
2,393	-71,3	-110,6
2,3935	-29,9	41,2
2,394	9,0	181,1
2,3945	45,5	308,6
2,395	80,6	427,8
2,3955	115,2	542,2
2,396	148,8	649,5
2,3965	179,2	740,2
2,397	203,4	802,1
2,3975	218,9	827,9
2,398	225,0	818,5
2,3985	222,2	780,1
2,399	211,4	717,6
2,3995	193,3	631,1
2,4	167,3	518,1
2,4005	133,3	380,2
2,401	93,0	226,6
2,4015	49,4	70,1
2,402	5,3	-79,6
2,4025	-37,6	-219,2
2,403	-78,5	-349,7
2,4035	-116,9	-472,0
2,404	-152,2	-584,6
2,4045	-183,4	-682,2
2,405	-209,1	-756,7
2,4055	-227,6	-800,0
2,406	-237,4	-808,5
2,4065	-238,1	-785,5
2,407	-230,1	-737,2
2,4075	-214,2	-667,0
2,408	-191,8	-573,7
2,4085	-163,9	-455,9
2,409	-131,5	-317,7
2,4095	-95,1	-168,2
2,41	-55,8	-18,5
2,4105	-14,9	123,4
2,411	26,1	254,3
2,4115	65,2	376,4
2,412	100,5	493,3
2,4125	131,2	604,5
2,413	157,0	702,5
2,4135	178,0	775,5
2,414	193,6	814,2
2,4145	202,6	817,0
2,415	203,8	788,9
2,4155	197,2	735,6
2,416	182,8	658,6
2,4165	160,0	555,4
2,417	128,2	425,5
2,4175	88,1	275,5
2,418	42,9	117,3
2,4185	-3,6	-38,5
2,419	-48,4	-185,8
2,4195	-90,1	-323,2
2,42	-127,8	-450,4
2,4205	-161,4	-566,4
2,421	-190,5	-668,2
2,4215	-214,4	-749,5
2,422	-231,5	-802,3
2,4225	-240,4	-820,7
2,423	-240,6	-805,6
2,4235	-232,9	-763,2
2,424	-218,5	-698,4
2,4245	-197,7	-611,0
2,425	-169,7	-498,1
2,4255	-134,8	-361,5
2,426	-94,4	-210,2
2,4265	-50,7	-56,3
2,427	-5,8	89,9
2,4275	38,0	223,8
2,428	79,3	346,2
2,4285	117,3	461,6
2,429	152,5	572,7
2,4295	184,3	675,2
2,43	210,8	758,0
2,4305	229,2	809,6
2,431	238,2	824,4
2,4315	238,2	805,0
2,432	230,4	757,4
2,4325	215,9	685,5
2,433	193,6	588,4
2,4335	161,0	465,0
2,434	115,6	319,7
2,4345	58,0	163,6
2,435	-6,7	8,7
2,4355	-71,3	-137,2
2,436	-130,4	-272,5
2,4365	-181,6	-397,9
2,437	-223,9	-513,8
2,4375	-257,4	-618,4
2,438	-282,1	-706,8
2,4385	-297,8	-771,5
2,439	-304,5	-805,1
2,4395	-301,9	-805,4
2,44	-290,4	-776,2
2,4405	-270,9	-722,8
2,441	-243,7	-646,7
2,4415	-208,8	-545,3
2,442	-166,8	-417,9
2,4425	-119,6	-271,4
2,443	-70,3	-117,8
2,4435	-22,0	31,2
2,444	22,9	168,6
2,4445	64,5	294,3
2,445	104,2	412,3
2,4455	143,8	526,6
2,446	182,8	635,1
2,4465	218,1	728,3
2,447	245,8	793,7
2,4475	263,6	823,2
2,448	270,5	816,9
2,4485	267,5	780,5
2,449	255,1	719,0
2,4495	232,9	632,7
2,45	199,8	519,6
2,4505	156,6	382,0
2,451	106,6	229,2
2,4515	54,8	73,6
2,452	4,8	-76,0
2,4525	-41,7	-216,5
2,453	-84,4	-347,7
2,4535	-123,8	-469,4
2,454	-159,9	-580,3
2,4545	-192,3	-676,6
2,455	-219,6	-752,0
2,4555	-239,9	-798,2
2,456	-251,4	-810,2
2,4565	-253,3	-789,6
2,457	-245,9	-742,5
2,4575	-229,8	-672,6
2,458	-205,5	-578,8
2,4585	-173,8	-459,3
2,459	-136,0	-317,5
2,4595	-94,5	-164,1
2,46	-51,8	-11,8
2,4605	-10,2	130,1
2,461	29,3	258,7
2,4615	67,2	377,4
2,462	104,6	491,5
2,4625	142,4	602,2
2,463	179,1	702,4
2,4635	211,6	779,6
2,464	236,5	822,9
2,4645	251,7	829,3
2,465	256,9	803,0
2,4655	252,5	749,9
2,466	238,9	671,8
2,4665	215,7	567,0
2,467	182,8	435,0
2,4675	141,7	282,9
2,468	95,5	123,1
2,4685	47,4	-33,0
2,469	0,0	-179,2
2,4695	-45,6	-315,1
2,47	-88,9	-441,4
2,4705	-129,3	-557,0
2,471	-165,7	-658,8
2,4715	-196,9	-740,9
2,472	-220,7	-795,7
2,4725	-235,5	-817,4
2,473	-240,3	-805,8
2,4735	-235,4	-766,3
2,474	-221,0	-703,6
2,4745	-197,6	-618,0
2,475	-166,6	-507,0
2,4755	-130,5	-371,6
2,476	-92,3	-220,5
2,4765	-53,6	-66,1
2,477	-15,3	80,4
2,4775	22,3	213,7
2,478	58,8	334,2
2,4785	94,5	446,2
2,479	129,6	553,0
2,4795	163,6	652,0
2,48	194,5	734,2
2,4805	219,3	788,7
2,481	235,5	809,6
2,4815	242,3	797,6
2,482	240,2	757,4
2,4825	229,3	692,1
2,483	209,8	600,6
2,4835	181,4	481,5
2,484	144,8	338,8
2,4845	102,3	183,2
2,485	56,9	27,3
2,4855	11,4	-120,7
2,486	-33,1	-258,3
2,4865	-76,0	-386,2
2,487	-117,3	-504,6
2,4875	-156,3	-611,6
2,488	-191,8	-702,4
2,4885	-221,5	-769,7
2,489	-243,2	-806,3
2,4895	-255,4	-809,7
2,49	-258,4	-783,3
2,4905	-253,3	-732,5
2,491	-241,1	-658,9
2,4915	-221,5	-559,8
2,492	-194,1	-434,0
2,4925	-159,4	-286,9
2,493	-119,4	-130,7
2,4935	-76,8	21,9
2,494	-34,4	162,8
2,4945	6,6	290,5
2,495	46,2	409,2
2,4955	85,1	523,3
2,496	123,3	632,1
2,4965	158,6	726,4
2,497	187,6	793,7
2,4975	207,8	825,3
2,498	218,1	820,7
2,4985	218,8	785,8
2,499	210,8	726,1
2,4995	194,2	642,8
2,5	168,9	533,8
2,5005	135,8	400,2
2,501	96,4	249,7
2,5015	53,2	93,8
2,502	8,6	-57,8
2,5025	-35,4	-200,7
2,503	-77,7	-334,4
2,5035	-117,5	-459,0
2,504	-153,0	-572,8
2,5045	-182,3	-671,4
2,505	-204,2	-747,8
2,5055	-218,6	-794,3
2,506	-226,0	-806,7
2,5065	-227,2	-787,3
2,507	-222,6	-742,5
2,5075	-212,5	-676,4
2,508	-196,4	-587,2
2,5085	-173,4	-471,7
2,509	-144,1	-332,7
2,5095	-109,9	-180,7
2,51	-72,5	-28,6
2,5105	-33,1	113,9
2,511	7,4	243,8
2,5115	48,0	363,8
2,512	88,3	478,6
2,5125	128,3	589,1
2,513	166,4	688,7
2,5135	199,9	765,4
2,514	225,2	809,0
2,5145	240,2	816,3
2,515	245,1	791,6
2,5155	240,8	740,8
2,516	228,2	666,6
2,5165	206,4	566,7
2,517	174,2	440,2
2,5175	132,3	293,1
2,518	84,1	137,2
2,5185	34,4	-16,1
2,519	-13,2	-160,6
2,5195	-57,4	-295,4
2,52	-98,7	-421,3
2,5205	-137,7	-538,3
2,521	-174,8	-644,2
2,5215	-209,2	-733,4
2,522	-238,5	-797,2
2,5225	-259,5	-827,5
2,523	-269,9	-822,5
2,5235	-269,6	-786,7
2,524	-259,8	-725,9
2,5245	-241,4	-641,6
2,525	-214,4	-532,2
2,5255	-179,1	-398,8
2,526	-137,4	-249,3
2,5265	-92,3	-95,5
2,527	-46,5	52,0
2,5275	-2,1	187,9
2,528	40,2	312,7
2,5285	80,9	430,4
2,529	120,2	544,0
2,5295	156,9	650,2
2,53	188,8	738,4
2,5305	213,4	797,0
2,531	229,3	819,5
2,5315	236,2	807,6
2,532	233,6	767,3
2,5325	221,2	703,0
2,533	199,1	613,8
2,5335	168,1	497,9
2,534	129,9	358,4
2,5345	86,8	205,1
2,535	41,8	49,6
2,5355	-3,3	-99,8
2,536	-48,1	-240,7
2,5365	-93,1	-372,7
2,537	-138,3	-495,4
2,5375	-182,2	-606,4
2,538	-222,3	-700,7
2,5385	-255,5	-770,6
2,539	-278,7	-808,8
2,5395	-290,6	-812,5
2,54	-291,3	-785,5
2,5405	-282,4	-734,1
2,541	-264,9	-660,9
2,5415	-238,7	-563,7
2,542	-203,5	-440,8
2,5425	-160,5	-297,0
2,543	-112,1	-143,9
2,5435	-61,3	6,5
2,544	-11,0	146,5
2,5445	37,0	274,7
2,545	82,0	394,3
2,5455	124,3	509,3
2,546	163,7	618,7
2,5465	198,5	714,1
2,547	226,1	783,8
2,5475	244,6	819,3
2,548	254,0	819,3
2,5485	255,5	788,9
2,549	249,9	733,5
2,5495	236,7	654,5
2,55	214,5	549,7
2,5505	183,0	419,5
2,551	144,4	271,0
2,5515	102,0	116,1
2,552	59,0	-35,0
2,5525	16,7	-177,0
2,553	-25,2	-308,9
2,5535	-66,9	-431,6
2,554	-108,0	-544,9
2,5545	-147,1	-645,7
2,555	-181,7	-727,3
2,5555	-208,6	-780,9
2,556	-224,8	-800,1
2,5565	-229,5	-785,1
2,557	-224,1	-741,7
2,5575	-211,1	-675,6
2,558	-192,3	-587,8
2,5585	-167,5	-476,4
2,559	-136,6	-343,2
2,5595	-100,6	-196,5
2,56	-61,6	-48,3
2,5605	-21,9	92,0
2,561	16,8	220,1
2,5615	53,8	337,3
2,562	89,7	448,3
2,5625	124,8	555,4
2,563	158,1	654,4
2,5635	186,5	734,9
2,564	207,0	785,5
2,5645	217,8	800,8
2,565	219,4	783,1
2,5655	212,9	737,5
2,566	199,2	667,2
2,5665	177,7	571,0
2,567	148,1	447,8
2,5675	111,0	302,8
2,568	68,3	147,4
2,5685	22,9	-6,6
2,569	-22,9	-152,2
2,5695	-67,8	-288,1
2,57	-110,8	-415,0
2,5705	-151,3	-532,4
2,571	-188,0	-637,4
2,5715	-218,9	-724,1
2,572	-241,9	-785,3
2,5725	-255,3	-814,8
2,573	-258,7	-811,3
2,5735	-253,0	-778,6
2,574	-239,8	-721,7
2,5745	-220,4	-641,8
2,575	-194,7	-536,5
2,5755	-162,4	-406,0
2,576	-124,5	-257,4
2,5765	-83,0	-102,9
2,577	-40,1	46,0
2,5775	2,9	183,3
2,578	45,1	309,0
2,5785	86,1	427,0
2,579	125,3	540,4
2,5795	161,4	646,3
2,58	192,2	735,1
2,5805	215,1	795,8
2,581	228,7	821,9
2,5815	233,0	813,9
2,582	229,4	777,0
2,5825	219,4	715,2
2,583	202,6	628,1
2,5835	177,8	513,6
2,584	144,7	374,4
2,5845	104,6	220,5
2,585	60,5	64,6
2,5855	15,1	-84,2
2,586	-29,7	-223,3
2,5865	-73,0	-353,3
2,587	-114,3	-474,5
2,5875	-153,3	-585,1
2,588	-189,4	-680,0
2,5885	-221,9	-752,1
2,589	-249,4	-794,2
2,5895	-269,9	-802,7
2,59	-282,0	-780,5
2,5905	-285,0	-733,4
2,591	-278,2	-665,1
2,5915	-260,7	-574,0
2,592	-232,4	-457,6
2,5925	-194,7	-319,0
2,593	-150,3	-168,1
2,5935	-102,8	-17,0
2,594	-55,0	125,2
2,5945	-8,4	255,8
2,595	36,9	377,6
2,5955	81,1	494,7
2,596	123,2	606,7
2,5965	160,2	705,7
2,597	188,4	779,5
2,5975	205,9	818,7
2,598	213,0	821,2
2,5985	211,1	791,7
2,599	201,6	736,1
2,5995	185,7	656,5
2,6	162,9	550,9
2,6005	133,1	419,6
2,601	97,4	269,6
2,6015	58,8	112,5
2,602	20,8	-40,8
2,6025	-13,8	-185,2
2,603	-45,5	-320,0
2,6035	-76,9	-445,6
2,604	-110,3	-561,5
2,6045	-145,1	-664,5
2,605	-177,9	-748,3
2,6055	-204,9	-804,3
2,606	-223,2	-826,4
2,6065	-231,7	-814,2
2,607	-230,7	-772,9
2,6075	-221,2	-707,3
2,608	-204,8	-617,8
2,6085	-182,6	-502,8
2,609	-155,6	-364,6
2,6095	-124,1	-212,1
2,61	-88,3	-57,5
2,6105	-49,4	89,2
2,611	-9,0	223,8
2,6115	31,4	347,4
2,612	70,6	464,1
2,6125	107,5	575,9
2,613	140,7	678,2
2,6135	168,1	760,0
2,614	187,9	810,2
2,6145	199,6	824,0
2,615	203,4	804,7
2,6155	200,4	758,3
2,616	190,4	688,1
2,6165	172,8	592,5
2,617	146,9	470,1
2,6175	113,7	325,4
2,618	75,3	169,2
2,6185	34,4	13,2
2,619	-7,2	-134,8
2,6195	-48,2	-272,3
2,62	-87,2	-399,7
2,6205	-123,3	-516,4
2,621	-156,3	-620,6
2,6215	-185,8	-707,3
2,622	-210,6	-769,4
2,6225	-228,7	-800,6
2,623	-238,6	-798,8
2,6235	-239,9	-768,0
2,624	-232,8	-714,0
2,6245	-217,4	-638,4
2,625	-193,7	-538,6
2,6255	-162,0	-413,1
2,626	-123,9	-268,0
2,6265	-82,3	-115,4
2,627	-40,2	32,9
2,6275	0,8	170,7
2,628	40,0	297,7
2,6285	77,6	417,5
2,629	113,9	533,0
2,6295	148,6	641,2
2,63	179,5	732,3
2,6305	204,0	793,6
2,631	219,3	816,9
2,6315	224,0	803,3
2,632	217,9	760,4
2,6325	202,4	695,2
2,633	179,1	608,6
2,6335	148,9	497,8
2,634	112,8	363,5
2,6345	72,3	213,2
2,635	30,4	58,2
2,6355	-10,3	-92,1
2,636	-48,2	-233,2
2,6365	-83,6	-364,6
2,637	-117,3	-486,0
2,6375	-149,3	-596,1
2,638	-178,4	-690,8
2,6385	-202,6	-764,0
2,639	-219,7	-808,4
2,6395	-228,3	-819,4
2,64	-228,7	-798,4
2,6405	-222,0	-750,7
2,641	-208,8	-679,9
2,6415	-189,1	-585,2
2,642	-161,9	-464,6
2,6425	-127,1	-322,2
2,643	-85,8	-168,5
2,6435	-41,0	-15,9
2,644	3,5	126,8
2,6445	44,9	256,7
2,645	82,4	376,3
2,6455	117,1	490,3
2,646	149,7	598,9
2,6465	179,6	694,9
2,647	204,9	766,4
2,6475	223,5	804,0
2,648	234,2	806,2
2,6485	236,7	778,0
2,649	231,0	725,5
2,6495	217,2	650,0
2,65	195,3	549,0
2,6505	165,1	421,4
2,651	127,8	273,8
2,6515	85,9	118,3
2,652	42,6	-33,6
2,6525	0,0	-176,0
2,653	-41,1	-308,3
2,6535	-80,6	-431,4
2,654	-118,4	-545,2
2,6545	-153,9	-646,6
2,655	-185,7	-730,0
2,6555	-211,5	-787,5
2,656	-229,1	-812,8
2,6565	-237,3	-804,8
2,657	-236,4	-767,8
2,6575	-227,3	-706,3
2,658	-210,3	-620,9
2,6585	-184,7	-509,3
2,659	-150,8	-373,3
2,6595	-110,7	-221,4
2,66	-68,0	-66,5
2,6605	-26,3	80,7
2,661	12,1	215,1
2,6615	47,3	338,4
2,662	80,6	455,1
2,6625	113,1	567,3
2,663	144,6	670,2
2,6635	172,8	753,2
2,664	194,5	805,4
2,6645	206,8	821,6
2,665	209,5	804,1
2,6655	203,5	758,8
2,666	189,8	690,0
2,6665	168,0	597,1
2,667	137,2	478,0
2,6675	98,0	335,5
2,668	52,7	179,1
2,6685	4,1	21,4
2,669	-45,4	-128,6
2,6695	-93,9	-267,8
2,67	-139,5	-396,4
2,6705	-180,5	-515,3
2,671	-215,9	-622,7
2,6715	-245,0	-713,8
2,672	-266,5	-781,2
2,6725	-278,4	-817,6
2,673	-280,1	-820,2
2,6735	-272,5	-792,6
2,674	-257,8	-740,1
2,6745	-236,7	-664,7
2,675	-208,7	-564,0
2,6755	-172,9	-436,8
2,676	-129,5	-288,8
2,6765	-81,1	-131,9
2,677	-31,6	21,3
2,6775	15,0	162,7
2,678	56,6	290,5
2,6785	93,2	408,1
2,679	126,2	519,4
2,6795	157,0	623,9
2,68	185,2	713,7
2,6805	209,0	777,8
2,681	226,3	808,2
2,6815	235,8	804,6
2,682	237,3	771,7
2,6825	231,3	713,9
2,683	217,8	631,6
2,6835	195,9	522,8
2,684	164,6	389,4
2,6845	124,8	239,5
2,685	79,3	84,7
2,6855	31,8	-66,0
2,686	-14,7	-208,9
2,6865	-57,7	-343,2
2,687	-96,3	-468,2
2,6875	-131,2	-581,9
2,688	-162,8	-680,1
2,6885	-190,6	-756,3
2,689	-212,8	-803,3
2,6895	-227,3	-816,9
2,69	-233,3	-799,3
2,6905	-230,7	-756,0
2,691	-220,2	-690,4
2,6915	-201,8	-600,8
2,692	-175,4	-484,1
2,6925	-141,8	-342,7
2,693	-103,1	-187,0
2,6935	-62,3	-30,3
2,694	-22,2	117,3
2,6945	14,8	251,5
2,695	47,3	374,6
2,6955	75,3	491,0
2,696	100,6	601,9
2,6965	124,8	701,4
2,697	147,5	778,4
2,6975	166,7	822,8
2,698	180,0	831,1
2,6985	186,2	806,2
2,699	185,6	753,0
2,6995	178,6	674,0
2,7	164,9	568,1
2,7005	143,2	436,2
2,701	112,8	285,9
2,7015	74,8	129,1
2,702	31,8	-23,2
2,7025	-12,9	-166,1
2,703	-57,4	-299,8
2,7035	-100,6	-425,4
2,704	-141,8	-542,3
2,7045	-179,2	-647,1
2,705	-211,1	-733,7
2,7055	-235,6	-794,3
2,706	-250,8	-822,6
2,7065	-255,3	-817,1
2,707	-249,3	-781,9
2,7075	-233,9	-721,9
2,708	-210,1	-638,2
2,7085	-178,4	-528,6
2,709	-139,6	-394,4
2,7095	-96,0	-243,8
2,71	-50,8	-89,3
2,7105	-6,3	58,4
2,711	36,7	194,1
2,7115	77,9	318,7
2,712	117,8	436,7
2,7125	156,3	550,9
2,713	192,1	657,0
2,7135	221,9	744,2
2,714	241,6	801,0
2,7145	248,4	821,4
2,715	242,9	807,2
2,7155	228,1	764,2
2,716	207,3	697,0
2,7165	181,7	605,4
2,717	151,4	487,5
2,7175	116,3	346,4
2,718	77,8	192,3
2,7185	37,6	37,4
2,719	-2,3	-110,0
2,7195	-41,0	-247,7
2,72	-77,7	-376,1
2,7205	-112,4	-495,2
2,721	-144,7	-602,9
2,7215	-174,1	-694,6
2,722	-199,6	-763,3
2,7225	-219,4	-801,8
2,723	-232,0	-806,6
2,7235	-236,6	-780,1
2,724	-233,4	-728,0
2,7245	-222,8	-653,1
2,725	-203,8	-554,1
2,7255	-175,5	-429,8
2,726	-138,5	-285,7
2,7265	-95,6	-132,9
2,727	-50,8	16,6
2,7275	-7,4	154,9
2,728	32,9	280,3
2,7285	71,0	397,0
2,729	108,5	510,0
2,7295	145,9	618,8
2,73	181,3	714,9
2,7305	210,8	785,8
2,731	231,2	822,2
2,7315	240,8	822,2
2,732	240,3	790,4
2,7325	231,3	732,6
2,733	214,7	650,2
2,7335	189,5	541,5
2,734	154,8	407,4
2,7345	111,1	255,9
2,735	61,3	99,1
2,7355	10,0	-52,5
2,736	-39,0	-194,4
2,7365	-83,8	-326,3
2,737	-124,4	-449,3
2,7375	-161,0	-563,0
2,738	-193,2	-664,4
2,7385	-219,5	-746,5
2,739	-237,2	-800,2
2,7395	-244,7	-819,0
2,74	-241,9	-803,2
2,7405	-231,0	-758,3
2,741	-214,8	-689,8
2,7415	-194,7	-598,5
2,742	-170,5	-482,7
2,7425	-140,9	-345,0
2,743	-105,8	-194,3
2,7435	-66,5	-42,5
2,744	-25,1	100,8
2,7445	16,3	231,8
2,745	56,8	352,3
2,7455	96,3	466,8
2,746	134,6	576,9
2,7465	170,4	677,3
2,747	200,8	757,0
2,7475	223,1	805,9
2,748	235,9	820,0
2,7485	240,2	802,0
2,749	237,1	757,0
2,7495	226,7	687,3
2,75	207,6	590,8
2,7505	178,4	466,6
2,751	139,9	320,0
2,7515	95,0	162,7
2,752	48,1	6,9
2,7525	2,1	-140,4
2,753	-42,0	-278,2
2,7535	-84,3	-407,0
2,754	-125,1	-526,7
2,7545	-163,7	-634,3
2,755	-198,2	-724,1
2,7555	-226,2	-788,1
2,756	-245,8	-819,7
2,7565	-256,1	-817,8
2,757	-258,0	-787,4
2,7575	-252,6	-734,0
2,758	-239,6	-657,8
2,7585	-217,6	-554,7
2,759	-185,6	-423,6
2,7595	-144,8	-272,3
2,76	-98,7	-113,9
2,7605	-51,0	39,0
2,761	-5,0	179,6
2,7615	37,7	307,6
2,762	77,7	426,9
2,7625	117,0	541,0
2,763	156,2	647,1
2,7635	192,4	735,8
2,764	220,8	795,8
2,7645	237,3	820,2
2,765	241,0	809,9
2,7655	233,4	770,6
2,766	216,9	706,8
2,7665	192,8	618,7
2,767	161,4	504,3
2,7675	123,7	366,3
2,768	81,9	214,1
2,7685	38,2	59,7
2,769	-6,9	-87,7
2,7695	-53,7	-225,3
2,77	-103,0	-353,8
2,7705	-153,8	-474,0
2,771	-202,8	-584,3
2,7715	-245,1	-679,7
2,772	-276,5	-752,4
2,7725	-294,4	-794,8
2,773	-298,8	-803,8
2,7735	-291,6	-782,6
2,774	-275,3	-736,6
2,7745	-251,5	-667,9
2,775	-220,3	-573,4
2,7755	-181,5	-451,1
2,776	-136,5	-306,1
2,7765	-88,1	-150,3
2,777	-39,8	2,9
2,7775	5,5	144,3
2,778	47,0	271,7
2,7785	86,0	388,8
2,779	124,7	501,0
2,7795	163,7	608,5
2,78	200,3	703,7
2,7805	230,0	774,7
2,781	248,9	812,0
2,7815	256,2	813,4
2,782	253,1	783,4
2,7825	241,7	727,8
2,783	223,0	648,4
2,7835	197,2	543,4
2,784	164,4	412,8
2,7845	125,8	263,2
2,785	83,2	106,4
2,7855	39,0	-46,8
2,786	-4,9	-190,8
2,7865	-47,1	-325,1
2,787	-86,9	-450,2
2,7875	-124,1	-565,3
2,788	-158,3	-666,5
2,7885	-188,2	-747,3
2,789	-211,3	-799,8
2,7895	-225,9	-818,7
2,79	-231,3	-804,4
2,7905	-228,4	-762,3
2,791	-218,4	-697,2
2,7915	-201,6	-609,0
2,792	-178,3	-495,2
2,7925	-149,1	-357,6
2,793	-116,3	-205,4
2,7935	-81,9	-51,3
2,794	-46,8	94,5
2,7945	-10,9	227,6
2,795	26,3	349,5
2,7955	64,4	464,8
2,796	102,7	575,2
2,7965	139,7	675,8
2,797	172,8	755,9
2,7975	199,5	804,8
2,798	217,7	818,2
2,7985	226,6	799,0
2,799	226,6	752,8
2,7995	218,6	682,9
2,8	202,4	587,7
2,8005	177,7	465,6
2,801	144,5	321,1
2,8015	104,6	165,0
2,802	60,3	9,3
2,8025	14,6	-138,2
2,803	-30,3	-275,3
2,8035	-72,5	-402,5
2,804	-111,2	-519,8
2,8045	-145,9	-624,8
2,805	-176,3	-712,4
2,8055	-201,3	-775,5
2,806	-218,9	-807,5
2,8065	-227,8	-806,2
2,807	-228,2	-775,3
2,8075	-221,2	-720,0
2,808	-207,4	-642,2
2,8085	-186,8	-539,7
2,809	-158,7	-411,9
2,8095	-123,7	-264,7
2,81	-84,1	-109,5
2,8105	-42,4	42,1
2,811	-0,9	182,5
2,8115	39,3	310,5
2,812	78,0	429,9
2,8125	115,4	544,1
2,813	150,7	650,4
2,8135	181,7	739,3
2,814	205,3	799,0
2,8145	219,4	822,8
2,815	223,6	811,6
2,8155	219,2	771,6
2,816	207,7	708,0
2,8165	188,9	621,5
2,817	161,3	510,1
2,8175	123,8	375,2
2,818	78,2	225,5
2,8185	29,1	72,5
2,819	-18,7	-75,1
2,8195	-62,8	-214,7
2,82	-103,3	-346,5
2,8205	-140,6	-470,6
2,821	-175,2	-584,2
2,8215	-206,3	-682,1
2,822	-233,1	-756,7
2,8225	-253,3	-800,5
2,823	-265,0	-809,8
2,8235	-267,0	-786,6
2,824	-259,8	-736,9
2,8245	-243,7	-664,6
2,825	-219,0	-568,8
2,8255	-185,8	-447,9
2,826	-145,9	-305,7
2,8265	-102,4	-153,1
2,827	-58,9	-2,7
2,8275	-18,0	137,0
2,828	20,3	264,2
2,8285	56,9	382,6
2,829	93,4	496,7
2,8295	129,6	605,7
2,83	163,4	701,8
2,8305	191,6	772,6
2,831	211,3	809,0
2,8315	221,6	809,4
2,832	223,5	778,8
2,8325	218,7	723,7
2,833	207,6	646,3
2,8335	189,0	544,7
2,834	161,8	417,9
2,8345	126,5	272,0
2,835	85,8	118,2
2,8355	42,7	-32,9
2,836	-0,4	-175,8
2,8365	-42,7	-309,8
2,837	-83,8	-435,1
2,8375	-122,4	-550,7
2,838	-156,3	-653,2
2,8385	-183,8	-736,2
2,839	-204,2	-792,1
2,8395	-217,1	-815,2
2,84	-222,4	-805,4
2,8405	-220,0	-767,6
2,841	-209,6	-706,4
2,8415	-190,9	-622,2
2,842	-164,0	-512,6
2,8425	-130,6	-379,9
2,843	-93,4	-233,0
2,8435	-54,9	-83,5
2,844	-16,5	59,6
2,8445	21,4	192,8
2,845	58,3	316,8
2,8455	94,5	435,5
2,846	130,5	549,9
2,8465	165,7	655,0
2,847	197,3	740,3
2,8475	221,3	794,8
2,848	235,2	813,3
2,8485	238,6	797,6
2,849	232,8	753,6
2,8495	219,4	685,2
2,85	198,8	592,0
2,8505	170,1	472,9
2,851	132,8	331,8
2,8515	87,0	178,7
2,852	35,2	24,8
2,8525	-18,3	-122,3
2,853	-69,7	-260,8
2,8535	-117,3	-390,8
2,854	-161,1	-512,0
2,8545	-200,4	-621,2
2,855	-234,1	-712,8
2,8555	-260,1	-778,9
2,856	-276,8	-812,8
2,8565	-283,3	-812,3
2,857	-280,3	-781,7
2,8575	-269,1	-727,1
2,858	-250,3	-650,8
2,8585	-223,9	-550,6
2,859	-188,7	-425,0
2,8595	-144,9	-279,3
2,86	-95,1	-125,4
2,8605	-43,8	24,3
2,861	4,7	161,9
2,8615	48,2	286,5
2,862	87,5	402,5
2,8625	124,3	514,4
2,863	159,2	620,9
2,8635	190,6	713,2
2,864	215,3	779,5
2,8645	230,3	811,7
2,865	234,5	808,5
2,8655	229,5	774,5
2,866	217,7	714,4
2,8665	199,8	629,1
2,867	175,0	517,0
2,8675	142,8	380,1
2,868	104,8	226,8
2,8685	63,8	69,6
2,869	22,6	-81,8
2,8695	-17,1	-223,1
2,87	-54,8	-354,4
2,8705	-90,5	-476,2
2,871	-124,1	-587,5
2,8715	-155,3	-684,1
2,872	-182,8	-759,2
2,8725	-204,9	-805,3
2,873	-219,3	-817,8
2,8735	-225,1	-798,6
2,874	-222,9	-753,1
2,8745	-213,3	-685,1
2,875	-196,5	-593,2
2,8755	-171,6	-475,1
2,876	-138,7	-334,1
2,8765	-99,5	-180,2
2,877	-57,1	-26,1
2,8775	-14,5	118,5
2,878	26,1	250,1
2,8785	64,0	370,8
2,879	99,8	485,2
2,8795	133,8	594,3
2,88	165,0	692,1
2,8805	191,1	767,8
2,881	209,4	811,7
2,8815	218,5	820,1
2,882	218,9	796,3
2,8825	212,0	745,9
2,883	198,6	671,3
2,8835	178,1	570,7
2,884	149,5	443,7
2,8845	113,3	296,3
2,885	71,8	140,2
2,8855	27,7	-13,6
2,886	-16,8	-158,8
2,8865	-60,6	-294,3
2,887	-103,2	-420,4
2,8875	-143,9	-536,5
2,888	-181,7	-639,4
2,8885	-214,4	-723,3
2,889	-239,6	-780,4
2,8895	-254,8	-804,5
2,89	-258,8	-795,1
2,8905	-252,3	-757,4
2,891	-237,2	-696,8
2,8915	-215,5	-614,0
2,892	-187,7	-506,2
2,8925	-153,7	-374,1
2,893	-113,8	-225,4
2,8935	-70,1	-72,4
2,894	-24,9	74,2
2,8945	19,1	208,7
2,895	60,3	331,5
2,8955	98,3	446,3
2,896	133,3	555,9
2,8965	165,8	657,1
2,897	194,7	740,0
2,8975	217,6	793,2
2,898	232,3	810,8
2,8985	238,1	795,0
2,899	235,2	752,0
2,8995	224,0	686,0
2,9	204,0	595,4
2,9005	174,9	477,2
2,901	137,6	334,2
2,9015	94,6	177,2
2,902	49,8	20,0
2,9025	5,9	-128,1
2,903	-36,3	-264,5
2,9035	-77,3	-390,7
2,904	-117,3	-508,0
2,9045	-155,6	-615,1
2,905	-190,3	-707,3
2,9055	-219,0	-776,7
2,906	-238,9	-815,4
2,9065	-248,5	-820,0
2,907	-248,1	-793,2
2,9075	-239,4	-740,5
2,908	-223,9	-664,3
2,9085	-201,5	-563,0
2,909	-171,8	-435,6
2,9095	-135,1	-287,7
2,91	-93,6	-131,1
2,9105	-50,3	21,5
2,911	-8,2	161,8
2,9115	31,6	287,9
2,912	69,2	403,6
2,9125	105,7	513,5
2,913	141,4	618,0
2,9135	174,8	709,9
2,914	202,6	778,0
2,9145	221,9	813,5
2,915	231,0	814,6
2,9155	230,2	785,0
2,916	220,4	729,0
2,9165	202,3	647,2
2,917	176,0	537,8
2,9175	141,6	402,3
2,918	100,8	249,1
2,9185	56,0	90,4
2,919	10,4	-63,2
2,9195	-33,9	-206,9
2,92	-75,9	-340,1
2,9205	-115,3	-463,1
2,921	-151,8	-575,2
2,9215	-185,0	-673,2
2,922	-213,8	-751,3
2,9225	-236,3	-802,0
2,923	-250,3	-819,9
2,9235	-254,3	-805,4
2,924	-249,1	-763,8
2,9245	-236,3	-699,7
2,925	-216,2	-612,1
2,9255	-188,0	-498,0
2,926	-152,1	-359,3
2,9265	-111,1	-205,7
2,927	-68,6	-50,3
2,9275	-27,0	96,1
2,928	13,0	229,5
2,9285	51,9	351,7
2,929	90,9	467,3
2,9295	130,4	578,2
2,93	168,8	678,9
2,9305	202,5	758,7
2,931	226,5	806,9
2,9315	237,2	819,4
2,932	233,6	798,8
2,9325	218,3	750,7
2,933	195,1	678,2
2,9335	166,1	579,9
2,934	132,2	455,1
2,9345	93,6	309,2
2,935	52,2	153,0
2,9355	9,9	-1,8
2,936	-31,3	-148,6
2,9365	-70,8	-285,8
2,937	-108,4	-413,8
2,9375	-143,8	-532,1
2,938	-176,3	-638,1
2,9385	-204,6	-726,2
2,939	-227,0	-788,7
2,9395	-241,6	-818,5
2,94	-247,5	-814,3
2,9405	-245,2	-780,3
2,941	-236,5	-721,9
2,9415	-222,9	-640,7
2,942	-203,8	-534,3
2,9425	-177,3	-402,8
2,943	-142,7	-253,5
2,9435	-102,5	-98,6
2,944	-61,5	50,7
2,9445	-24,0	188,2
2,945	9,0	314,1
2,9455	38,9	432,4
2,946	68,0	546,0
2,9465	97,9	651,6
2,947	128,6	739,3
2,9475	158,3	798,0
2,948	183,3	821,4
2,9485	200,5	810,8
2,949	208,0	771,7
2,9495	205,1	708,3
2,95	191,8	619,7
2,9505	168,8	503,8
2,951	138,1	363,5
2,9515	102,4	208,8
2,952	64,7	52,3
2,9525	26,0	-97,0
2,953	-14,8	-236,0
2,9535	-59,6	-364,9
2,954	-108,1	-484,2
2,9545	-156,7	-592,7
2,955	-200,2	-686,1
2,9555	-234,0	-757,3
2,956	-255,9	-798,5
2,9565	-265,4	-805,8
2,957	-263,6	-781,4
2,9575	-252,0	-730,9
2,958	-232,7	-657,6
2,9585	-207,0	-560,4
2,959	-175,3	-438,8
2,9595	-137,5	-297,8
2,96	-94,5	-147,6
2,9605	-48,2	0,7
2,961	-1,4	139,8
2,9615	43,6	268,3
2,962	85,6	388,7
2,9625	124,3	504,7
2,963	160,0	615,5
2,9635	191,8	713,4
2,964	217,5	786,4
2,9645	234,5	824,7
2,965	241,1	825,9
2,9655	237,8	794,9
2,966	226,7	738,6
2,9665	209,3	659,3
2,967	185,9	554,9
2,9675	155,6	425,2
2,968	118,6	276,7
2,9685	77,0	121,1
2,969	33,7	-31,2
2,9695	-9,0	-175,2
2,97	-49,9	-310,2
2,9705	-88,6	-436,6
2,971	-125,1	-553,2
2,9715	-158,8	-656,1
2,972	-188,5	-738,8
2,9725	-211,9	-793,3
2,973	-227,0	-814,3
2,9735	-233,0	-802,1
2,974	-230,8	-761,1
2,9745	-222,1	-695,5
2,975	-207,1	-606,0
2,9755	-185,4	-492,0
2,976	-156,3	-356,6
2,9765	-120,9	-208,5
2,977	-81,0	-58,4
2,9775	-38,7	85,1
2,978	4,6	218,5
2,9785	47,8	342,7
2,979	90,2	461,2
2,9795	130,5	574,9
2,98	167,0	678,1
2,9805	197,4	759,5
2,981	219,8	808,4
2,9815	232,8	820,6
2,982	236,6	799,5
2,9825	232,3	751,3
2,983	220,4	679,3
2,9835	200,1	582,6
2,984	170,6	459,5
2,9845	132,6	314,7
2,985	88,8	158,8
2,9855	42,8	3,4
2,986	-2,0	-143,8
2,9865	-44,2	-280,2
2,987	-83,5	-405,8
2,9875	-120,3	-520,6
2,988	-154,7	-623,0
2,9885	-185,6	-708,3
2,989	-211,3	-769,3
2,9895	-229,6	-799,3
2,99	-238,8	-796,4
2,9905	-239,0	-764,2
2,991	-230,9	-708,0
2,9915	-215,1	-629,4
2,992	-191,1	-525,8
2,9925	-158,5	-396,8
2,993	-118,6	-248,8
2,9935	-74,6	-93,1
2,994	-30,1	58,4
2,9945	12,5	198,2
2,995	52,3	324,8
2,9955	89,3	441,3
2,996	124,2	550,6
2,9965	156,9	650,7
2,997	187,0	733,3
2,9975	212,1	788,1
2,998	229,4	808,6
2,9985	237,2	795,7
2,999	235,4	755,5
2,9995	225,3	692,9
3	207,5	608,2
3,0005	182,2	498,2
3,001	149,5	364,1
3,0015	110,8	214,0
3,002	68,2	59,3
3,0025	23,7	-90,7
3,003	-20,9	-232,1
3,0035	-64,1	-364,1
3,004	-104,8	-485,9
3,0045	-142,2	-595,8
3,005	-175,2	-689,4
3,0055	-202,2	-760,6
3,006	-221,9	-802,4
3,0065	-233,0	-811,2
3,007	-235,4	-789,2
3,0075	-229,9	-741,7
3,008	-217,6	-671,9
3,0085	-198,6	-578,4
3,009	-172,4	-459,2
3,0095	-139,3	-318,3
3,01	-100,9	-166,2
3,0105	-59,9	-14,9
3,011	-19,3	126,9
3,0115	18,3	256,7
3,012	51,7	376,9
3,0125	81,8	491,8
3,013	110,5	601,6
3,0135	138,5	698,9
3,014	163,4	772,0
3,0145	181,3	811,4
3,015	189,4	814,9
3,0155	187,5	786,6
3,016	177,3	732,3
3,0165	159,9	654,2
3,017	135,0	550,1
3,0175	103,2	420,3
3,018	66,6	271,6
3,0185	28,6	116,2
3,019	-8,3	-34,9
3,0195	-43,8	-176,6
3,02	-78,9	-309,1
3,0205	-114,1	-433,4
3,021	-148,7	-548,9
3,0215	-180,9	-651,8
3,022	-208,3	-735,5
3,0225	-228,3	-791,8
3,023	-238,6	-814,6
3,0235	-238,9	-803,7
3,024	-230,3	-764,2
3,0245	-214,6	-700,9
3,025	-192,5	-614,4
3,0255	-163,8	-502,1
3,026	-129,3	-365,6
3,0265	-92,4	-213,6
3,027	-56,8	-58,7
3,0275	-24,0	88,5
3,028	7,0	223,3
3,0285	38,0	347,1
3,029	70,8	464,7
3,0295	106,4	578,5
3,03	144,0	683,2
3,0305	180,1	767,3
3,031	210,4	819,7
3,0315	231,8	835,2
3,032	242,8	816,6
3,0325	243,9	770,4
3,033	235,7	700,7
3,0335	218,5	606,8
3,034	192,1	486,6
3,0345	157,1	343,3
3,035	116,5	187,0
3,0355	73,8	29,4
3,036	31,6	-121,3
3,0365	-9,4	-262,2
3,037	-49,4	-393,1
3,0375	-88,3	-513,2
3,038	-124,9	-620,3
3,0385	-158,0	-710,0
3,039	-186,0	-775,6
3,0395	-207,4	-810,5
3,04	-220,8	-812,5
3,0405	-225,8	-784,9
3,041	-222,6	-732,3
3,0415	-211,4	-656,6
3,042	-191,8	-555,9
3,0425	-163,5	-430,2
3,043	-128,2	-285,1
3,0435	-88,8	-131,6
3,044	-49,0	19,3
3,0445	-12,2	160,4
3,045	19,7	290,1
3,0455	47,4	411,4
3,046	73,7	527,7
3,0465	101,1	637,0
3,047	129,0	730,5
3,0475	154,4	796,1
3,048	174,1	825,9
3,0485	186,7	820,0
3,049	192,2	784,2
3,0495	191,1	723,9
3,05	182,9	639,6
3,0505	166,2	529,0
3,051	140,7	393,4
3,0515	107,9	241,3
3,052	70,7	84,8
3,0525	32,0	-66,3
3,053	-6,6	-208,0
3,0535	-44,2	-340,1
3,054	-81,0	-463,6
3,0545	-117,1	-577,8
3,055	-151,6	-678,3
3,0555	-181,7	-757,5
3,056	-204,1	-806,6
3,0565	-216,9	-820,4
3,057	-220,4	-800,8
3,0575	-215,9	-753,3
3,058	-204,6	-682,4
3,0585	-187,0	-588,0
3,059	-163,3	-468,5
3,0595	-133,9	-327,8
3,06	-99,9	-175,7
3,0605	-62,9	-24,2
3,061	-24,6	118,0
3,0615	13,9	247,9
3,062	51,6	367,9
3,0625	88,6	482,2
3,063	124,7	591,6
3,0635	158,9	689,5
3,064	188,8	764,9
3,0645	211,3	808,1
3,065	224,7	816,0
3,0655	228,8	792,0
3,066	224,9	741,5
3,0665	213,6	666,8
3,067	194,7	566,3
3,0675	167,5	439,6
3,068	132,7	292,9
3,0685	92,4	137,9
3,069	49,7	-14,3
3,0695	7,1	-157,7
3,07	-34,3	-291,5
3,0705	-73,7	-416,5
3,071	-110,6	-532,0
3,0715	-144,3	-634,8
3,072	-174,1	-718,9
3,0725	-198,8	-776,8
3,073	-216,8	-802,6
3,0735	-226,9	-795,9
3,074	-229,0	-762,0
3,0745	-223,6	-705,9
3,075	-210,8	-627,1
3,0755	-190,0	-521,8
3,076	-161,1	-389,8
3,0765	-124,9	-239,1
3,077	-84,2	-82,8
3,0775	-41,7	66,9
3,078	0,4	204,0
3,0785	41,2	328,8
3,079	80,7	445,6
3,0795	119,3	557,4
3,08	155,8	660,4
3,0805	187,6	744,4
3,081	211,5	798,1
3,0815	225,4	816,1
3,082	229,2	800,2
3,0825	224,1	756,9
3,083	211,5	690,4
3,0835	191,8	600,2
3,084	164,8	483,7
3,0845	130,4	343,9
3,085	90,5	190,6
3,0855	48,0	35,9
3,086	5,4	-112,0
3,0865	-35,9	-250,7
3,087	-75,8	-380,8
3,0875	-114,1	-502,1
3,088	-150,0	-612,0
3,0885	-182,4	-705,0
3,089	-210,4	-773,7
3,0895	-233,2	-810,9
3,09	-249,6	-813,8
3,0905	-258,3	-785,6
3,091	-258,4	-732,2
3,0915	-249,4	-656,1
3,092	-230,6	-555,6
3,0925	-201,7	-429,4
3,093	-163,5	-283,0
3,0935	-118,2	-127,8
3,094	-69,0	24,3
3,0945	-19,6	165,4
3,095	27,9	293,9
3,0955	73,0	413,3
3,096	116,8	527,3
3,0965	159,9	635,0
3,097	200,7	728,1
3,0975	235,2	795,0
3,098	258,8	827,1
3,0985	269,6	822,8
3,099	268,8	787,3
3,0995	258,9	726,3
3,1	241,1	641,3
3,1005	214,5	530,0
3,101	179,1	393,7
3,1015	136,2	241,3
3,102	88,8	85,2
3,1025	39,7	-64,8
3,103	-9,2	-205,1
3,1035	-56,9	-336,3
3,104	-102,6	-459,2
3,1045	-145,6	-572,4
3,105	-184,4	-671,9
3,1055	-217,0	-750,6
3,106	-241,4	-800,2
3,1065	-255,8	-815,8
3,107	-259,5	-798,4
3,1075	-253,3	-753,5
3,108	-238,3	-685,3
3,1085	-216,2	-593,5
3,109	-188,8	-475,9
3,1095	-157,7	-335,4
3,11	-123,6	-181,9
3,1105	-87,2	-27,7
3,111	-50,1	117,4
3,1115	-14,5	249,7
3,112	18,5	370,9
3,1125	50,1	485,9
3,113	82,3	596,8
3,1135	114,8	698,1
3,114	144,7	778,3
3,1145	168,5	826,4
3,115	184,3	837,8
3,1155	191,6	815,8
3,116	190,8	766,2
3,1165	182,0	691,9
3,117	165,5	591,6
3,1175	141,4	464,3
3,118	110,7	316,3
3,1185	75,6	159,3
3,119	38,8	5,1
3,1195	2,3	-140,0
3,12	-33,0	-275,0
3,1205	-67,1	-401,0
3,121	-99,8	-518,6
3,1215	-130,7	-625,7
3,122	-157,9	-716,3
3,1225	-179,2	-782,0
3,123	-192,8	-814,8
3,1235	-198,7	-812,6
3,124	-198,5	-779,6
3,1245	-193,4	-721,3
3,125	-182,5	-639,5
3,1255	-163,9	-532,1
3,126	-136,8	-399,6
3,1265	-101,5	-249,2
3,127	-60,2	-92,8
3,1275	-15,7	58,0
3,128	28,7	196,7
3,1285	70,1	323,1
3,129	107,4	441,2
3,1295	141,4	554,0
3,13	172,4	658,1
3,1305	199,3	743,8
3,131	220,0	799,8
3,1315	232,4	820,3
3,132	236,1	806,4
3,1325	231,8	764,1
3,133	220,2	698,1
3,1335	201,2	608,4
3,134	174,5	492,9
3,1345	140,6	353,9
3,135	100,7	200,1
3,1355	56,8	43,3
3,136	11,5	-107,6
3,1365	-33,5	-249,2
3,137	-76,5	-381,4
3,1375	-116,3	-504,0
3,138	-152,4	-614,5
3,1385	-183,9	-707,9
3,139	-209,8	-777,1
3,1395	-228,7	-814,9
3,14	-239,3	-818,4
3,1405	-241,3	-790,8
3,141	-234,9	-738,0
3,1415	-220,6	-663,2
3,142	-198,7	-564,7
3,1425	-169,3	-440,8
3,143	-133,5	-296,3
3,1435	-93,3	-141,8
3,144	-51,0	10,3
3,1445	-8,8	151,8
3,145	31,8	280,7
3,1455	70,4	400,0
3,146	107,8	513,9
