Interval=	0,0005 s
ExcelDateTime=	4,5902521192888984e+004	2/09/2025 12:30:31,065609
TimeFormat=	StartOfBlock
DateFormat=	
ChannelTitle=	Biceps	Triceps
Range=	1000,0 µV	1000,0 µV
0	0,5	0,2
0,0005	5,8	0,0
0,001	19,3	-5,3
0,0015	37,7	-24,8
0,002	50,9	-66,6
0,0025	49,9	-131,1
0,003	33,7	-210,9
0,0035	6,2	-296,2
0,004	-28,5	-378,6
0,0045	-66,8	-452,0
0,005	-105,2	-511,7
0,0055	-140,0	-552,3
0,006	-167,5	-569,8
0,0065	-184,9	-563,8
0,007	-192,2	-537,9
0,0075	-190,1	-495,8
0,008	-178,4	-437,5
0,0085	-155,9	-361,1
0,009	-122,5	-267,1
0,0095	-81,3	-161,3
0,01	-36,8	-53,2
0,0105	6,7	49,1
0,011	46,6	141,5
0,0115	82,2	225,2
0,012	113,6	303,9
0,0125	141,5	380,3
0,013	166,2	452,3
0,0135	186,8	512,0
0,014	201,7	550,4
0,0145	209,8	562,3
0,015	210,9	549,2
0,0155	206,0	516,6
0,016	196,2	468,2
0,0165	181,2	403,6
0,017	160,5	320,9
0,0175	133,7	222,0
0,018	102,2	114,1
0,0185	68,8	6,5
0,019	35,9	-94,7
0,0195	5,3	-188,2
0,02	-23,2	-275,1
0,0205	-50,0	-356,0
0,021	-75,2	-429,7
0,0215	-98,4	-492,7
0,022	-118,3	-539,3
0,0225	-133,2	-563,2
0,023	-141,8	-562,1
0,0235	-143,9	-539,0
0,024	-140,0	-499,5
0,0245	-131,0	-445,9
0,025	-116,8	-376,6
0,0255	-97,2	-290,0
0,026	-72,3	-189,3
0,0265	-43,4	-82,9
0,027	-13,0	20,1
0,0275	16,8	114,5
0,028	44,7	200,1
0,0285	70,5	280,0
0,029	94,6	357,5
0,0295	117,6	431,8
0,03	139,2	496,9
0,0305	157,7	543,2
0,031	171,1	563,8
0,0315	177,9	557,9
0,032	177,8	530,6
0,0325	170,8	486,6
0,033	157,0	426,8
0,0335	135,8	349,3
0,034	107,4	254,1
0,0345	73,8	147,3
0,035	38,3	38,5
0,0355	3,9	-64,8
0,036	-27,9	-160,2
0,0365	-57,1	-249,1
0,037	-84,2	-332,5
0,0375	-109,6	-409,8
0,038	-133,0	-478,0
0,0385	-153,0	-531,6
0,039	-167,9	-564,1
0,0395	-175,8	-571,3
0,04	-176,3	-554,3
0,0405	-170,0	-518,3
0,041	-158,4	-467,3
0,0415	-143,6	-401,2
0,042	-127,6	-318,1
0,0425	-111,2	-219,7
0,043	-94,1	-112,6
0,0435	-75,1	-6,2
0,044	-53,7	92,0
0,0445	-30,2	179,3
0,045	-5,3	257,6
0,0455	21,1	331,8
0,046	49,3	404,1
0,0465	79,4	471,2
0,047	109,5	524,1
0,0475	135,9	554,0
0,048	154,8	557,8
0,0485	164,5	538,4
0,049	165,6	501,3
0,0495	159,9	448,8
0,05	148,8	379,1
0,0505	132,7	290,8
0,051	111,5	187,6
0,0515	85,8	78,2
0,052	56,7	-28,6
0,0525	25,7	-128,1
0,053	-5,6	-220,1
0,0535	-35,5	-305,4
0,054	-63,6	-384,3
0,0545	-90,9	-455,0
0,055	-118,6	-513,7
0,0555	-145,6	-554,1
0,056	-168,3	-571,0
0,0565	-182,5	-563,2
0,057	-186,2	-534,8
0,0575	-179,5	-490,4
0,058	-164,2	-430,8
0,0585	-142,0	-354,1
0,059	-114,0	-260,5
0,0595	-81,7	-155,3
0,06	-46,3	-47,6
0,0605	-9,8	54,5
0,061	26,3	147,2
0,0615	60,9	231,4
0,062	93,6	311,0
0,0625	124,1	388,3
0,063	151,8	461,2
0,0635	174,9	521,8
0,064	191,8	561,0
0,0645	201,9	573,8
0,065	205,2	561,7
0,0655	202,3	529,6
0,066	193,8	481,1
0,0665	179,6	415,7
0,067	159,1	331,5
0,0675	131,9	230,9
0,068	99,2	121,7
0,0685	63,8	13,2
0,069	28,8	-88,4
0,0695	-3,6	-181,7
0,07	-33,0	-268,1
0,0705	-59,8	-348,7
0,071	-84,8	-422,5
0,0715	-107,8	-486,3
0,072	-127,7	-533,9
0,0725	-142,3	-559,0
0,073	-149,7	-558,7
0,0735	-149,9	-536,4
0,074	-144,3	-497,8
0,0745	-134,1	-445,5
0,075	-119,1	-378,0
0,0755	-98,5	-293,6
0,076	-72,4	-195,3
0,0765	-42,8	-90,9
0,077	-12,0	11,3
0,0775	17,7	105,8
0,078	45,3	192,0
0,0785	70,8	272,9
0,079	95,3	351,6
0,0795	119,2	427,5
0,08	142,3	494,3
0,0805	162,4	542,0
0,081	176,6	563,3
0,0815	182,7	557,0
0,082	180,8	528,1
0,0825	172,4	482,3
0,083	158,8	421,6
0,0835	140,2	344,7
0,084	116,0	251,3
0,0845	86,3	146,1
0,085	53,2	37,8
0,0855	19,6	-65,9
0,086	-11,8	-161,5
0,0865	-40,3	-249,4
0,087	-66,5	-330,8
0,0875	-92,7	-405,8
0,088	-121,3	-472,9
0,0885	-153,0	-527,5
0,089	-183,9	-562,6
0,0895	-208,1	-572,9
0,09	-221,2	-558,7
0,0905	-222,7	-524,8
0,091	-214,8	-475,1
0,0915	-199,8	-409,4
0,092	-178,0	-326,2
0,0925	-149,3	-227,4
0,093	-114,7	-120,2
0,0935	-76,2	-14,3
0,094	-36,6	83,4
0,0945	1,6	171,1
0,095	36,5	252,0
0,0955	67,3	330,2
0,096	93,7	406,5
0,0965	115,5	475,8
0,097	132,1	528,7
0,0975	140,7	557,0
0,098	137,4	558,7
0,0985	119,8	537,7
0,099	91,1	499,3
0,0995	58,7	445,8
0,1	28,9	375,7
0,1005	4,4	288,0
0,101	-15,1	186,2
0,1015	-29,1	78,8
0,102	-36,2	-25,6
0,1025	-36,2	-122,6
0,103	-31,5	-212,5
0,1035	-27,1	-297,0
0,104	-26,9	-375,9
0,1045	-32,4	-447,3
0,105	-42,4	-506,7
0,1055	-54,7	-547,9
0,106	-66,3	-565,8
0,1065	-75,0	-559,3
0,107	-79,5	-532,5
0,1075	-79,5	-489,9
0,108	-75,0	-432,3
0,1085	-65,2	-357,6
0,109	-48,9	-265,3
0,1095	-26,6	-160,6
0,11	-1,3	-52,3
0,1105	23,2	50,9
0,111	45,3	144,6
0,1115	66,6	229,0
0,112	89,5	307,4
0,1125	114,8	382,3
0,113	140,7	452,2
0,1135	164,7	510,0
0,114	183,7	547,3
0,1145	195,1	559,4
0,115	197,8	547,9
0,1155	192,1	517,3
0,116	179,1	470,6
0,1165	159,9	406,9
0,117	135,0	324,6
0,1175	104,9	225,7
0,118	71,5	117,8
0,1185	37,3	10,2
0,119	4,7	-91,3
0,1195	-25,4	-186,3
0,12	-53,1	-276,7
0,1205	-78,5	-362,0
0,121	-101,8	-439,5
0,1215	-122,4	-504,9
0,122	-139,2	-553,0
0,1225	-150,6	-578,4
0,123	-155,6	-579,3
0,1235	-154,0	-557,9
0,124	-146,7	-518,8
0,1245	-134,0	-464,3
0,125	-116,2	-393,1
0,1255	-93,3	-304,5
0,126	-65,9	-202,3
0,1265	-36,0	-94,5
0,127	-6,2	9,6
0,1275	21,4	104,6
0,128	46,0	190,3
0,1285	68,5	270,2
0,129	90,0	347,7
0,1295	111,0	422,7
0,13	130,7	489,3
0,1305	147,2	538,0
0,131	158,3	561,6
0,1315	162,7	558,8
0,132	160,6	534,1
0,1325	153,3	492,4
0,133	141,3	434,8
0,1335	123,5	359,5
0,134	99,2	266,4
0,1345	68,8	160,8
0,135	34,8	51,8
0,1355	0,3	-53,2
0,136	-32,6	-150,7
0,1365	-63,0	-241,1
0,137	-90,7	-325,0
0,1375	-115,3	-402,2
0,138	-136,2	-470,5
0,1385	-152,5	-525,3
0,139	-163,8	-560,3
0,1395	-169,9	-570,6
0,14	-170,5	-556,7
0,1405	-165,5	-523,5
0,141	-155,6	-475,1
0,1415	-142,3	-411,3
0,142	-126,3	-330,2
0,1425	-106,5	-233,0
0,143	-82,1	-126,7
0,1435	-54,3	-20,5
0,144	-25,8	78,6
0,1445	1,3	168,3
0,145	26,5	250,8
0,1455	51,3	329,8
0,146	76,6	406,6
0,1465	102,1	476,6
0,147	125,7	530,9
0,1475	144,6	561,0
0,148	156,9	564,1
0,1485	162,6	544,1
0,149	161,9	506,8
0,1495	155,7	454,7
0,15	144,1	386,3
0,1505	126,0	299,8
0,151	100,2	198,5
0,1515	66,8	90,7
0,152	28,7	-14,8
0,1525	-9,7	-113,3
0,153	-45,4	-204,6
0,1535	-77,7	-289,9
0,154	-106,7	-369,2
0,1545	-132,4	-440,9
0,155	-153,5	-501,4
0,1555	-168,0	-544,5
0,156	-174,5	-564,5
0,1565	-172,6	-560,0
0,157	-164,0	-535,1
0,1575	-150,7	-494,6
0,158	-134,1	-438,9
0,1585	-114,4	-365,1
0,159	-91,0	-272,7
0,1595	-63,4	-167,5
0,16	-32,5	-59,6
0,1605	-0,5	41,6
0,161	30,1	131,9
0,1615	58,0	213,3
0,162	84,2	291,1
0,1625	109,9	369,0
0,163	135,7	445,1
0,1635	159,5	510,7
0,164	178,4	555,3
0,1645	189,8	572,6
0,165	192,9	563,4
0,1655	188,8	532,8
0,166	179,1	485,4
0,1665	164,8	421,3
0,167	146,2	338,6
0,1675	122,8	239,2
0,168	95,1	130,0
0,1685	64,4	20,5
0,169	32,3	-82,6
0,1695	0,4	-177,7
0,17	-30,1	-265,7
0,1705	-58,0	-347,6
0,171	-83,0	-423,1
0,1715	-105,5	-489,8
0,172	-125,5	-541,8
0,1725	-141,8	-571,8
0,173	-153,3	-575,6
0,1735	-160,0	-555,5
0,174	-162,3	-516,9
0,1745	-159,6	-462,8
0,175	-150,4	-392,3
0,1755	-133,8	-304,4
0,176	-109,7	-202,3
0,1765	-79,8	-94,2
0,177	-46,9	10,9
0,1775	-14,1	107,6
0,178	16,7	195,1
0,1785	45,8	276,4
0,179	74,3	355,2
0,1795	102,7	431,1
0,18	130,4	498,3
0,1805	154,9	547,4
0,181	173,7	570,9
0,1815	185,0	567,9
0,182	188,2	542,7
0,1825	183,8	500,4
0,183	172,5	442,4
0,1835	155,1	367,1
0,184	132,3	274,1
0,1845	105,2	168,7
0,185	75,5	60,3
0,1855	45,0	-43,4
0,186	14,8	-139,6
0,1865	-14,9	-229,5
0,187	-44,1	-314,3
0,1875	-72,0	-393,3
0,188	-97,4	-464,2
0,1885	-118,9	-522,4
0,189	-135,0	-561,1
0,1895	-145,8	-574,9
0,19	-152,0	-564,0
0,1905	-155,2	-533,0
0,191	-156,2	-486,7
0,1915	-156,7	-425,8
0,192	-159,2	-348,3
0,1925	-163,6	-254,7
0,193	-165,8	-150,0
0,1935	-159,8	-42,9
0,194	-141,8	59,3
0,1945	-111,0	153,0
0,195	-69,3	239,3
0,1955	-20,3	321,2
0,196	32,4	399,5
0,1965	85,3	470,7
0,197	134,9	526,5
0,1975	177,6	558,7
0,198	209,7	563,8
0,1985	229,3	544,9
0,199	235,8	507,2
0,1995	228,1	453,8
0,2	204,9	383,8
0,2005	166,8	296,2
0,201	118,5	194,3
0,2015	67,0	86,2
0,202	18,5	-19,4
0,2025	-23,9	-117,7
0,203	-59,5	-208,3
0,2035	-89,1	-292,8
0,204	-113,9	-371,6
0,2045	-134,5	-443,3
0,205	-149,3	-504,2
0,2055	-155,9	-548,2
0,206	-152,3	-569,2
0,2065	-139,8	-565,4
0,207	-122,2	-540,5
0,2075	-103,7	-499,4
0,208	-86,6	-443,4
0,2085	-69,6	-369,9
0,209	-50,7	-278,1
0,2095	-29,5	-172,6
0,21	-7,7	-63,0
0,2105	12,5	41,6
0,211	30,4	136,5
0,2115	47,0	222,0
0,212	64,3	301,9
0,2125	84,1	379,5
0,213	106,8	453,7
0,2135	131,1	517,0
0,214	154,2	559,9
0,2145	172,4	575,8
0,215	183,1	565,1
0,2155	185,3	533,0
0,216	179,9	484,5
0,2165	167,8	420,4
0,217	149,7	339,0
0,2175	125,8	241,1
0,218	97,3	133,2
0,2185	66,0	24,5
0,219	34,1	-78,3
0,2195	2,8	-173,7
0,22	-27,3	-263,1
0,2205	-56,2	-346,9
0,221	-83,4	-424,0
0,2215	-108,0	-490,8
0,222	-128,6	-541,1
0,2225	-143,9	-568,6
0,223	-153,5	-570,4
0,2235	-157,4	-549,3
0,224	-156,1	-510,8
0,2245	-149,4	-458,0
0,225	-136,7	-389,4
0,2255	-117,3	-303,2
0,226	-91,1	-202,1
0,2265	-59,5	-93,8
0,227	-25,3	12,2
0,2275	9,0	109,8
0,228	41,3	197,8
0,2285	70,5	278,8
0,229	96,8	355,7
0,2295	120,3	428,5
0,23	140,8	492,0
0,2305	157,2	537,7
0,231	168,1	559,1
0,2315	172,6	555,4
0,232	171,0	530,9
0,2325	163,8	490,3
0,233	151,3	434,6
0,2335	133,4	361,8
0,234	110,1	271,3
0,2345	82,4	167,7
0,235	52,1	59,8
0,2355	21,7	-44,4
0,236	-7,7	-141,2
0,2365	-35,7	-230,7
0,237	-62,9	-314,2
0,2375	-89,8	-391,7
0,238	-115,8	-460,8
0,2385	-140,2	-516,4
0,239	-161,1	-552,0
0,2395	-176,0	-562,3
0,24	-183,0	-548,0
0,2405	-181,5	-514,4
0,241	-172,3	-466,2
0,2415	-156,6	-403,8
0,242	-135,0	-324,8
0,2425	-108,0	-229,5
0,243	-76,8	-124,1
0,2435	-43,5	-18,2
0,244	-10,4	80,4
0,2445	20,9	168,6
0,245	50,0	248,0
0,2455	77,3	322,7
0,246	103,6	395,0
0,2465	128,6	462,4
0,247	151,1	517,3
0,2475	168,8	550,7
0,248	179,6	558,3
0,2485	182,9	542,3
0,249	179,0	507,7
0,2495	168,2	457,3
0,25	150,9	390,1
0,2505	127,3	304,5
0,251	97,4	203,4
0,2515	61,6	94,9
0,252	20,8	-12,2
0,2525	-22,9	-112,5
0,253	-66,4	-205,8
0,2535	-107,3	-293,4
0,254	-145,2	-375,1
0,2545	-180,0	-448,7
0,255	-210,9	-509,7
0,2555	-235,3	-551,6
0,256	-249,8	-569,2
0,2565	-252,8	-561,5
0,257	-245,1	-533,4
0,2575	-228,7	-490,5
0,258	-205,5	-434,3
0,2585	-176,3	-361,9
0,259	-140,7	-271,4
0,2595	-99,0	-166,9
0,26	-53,3	-57,7
0,2605	-7,4	47,1
0,261	35,0	142,2
0,2615	72,0	227,6
0,262	104,1	306,7
0,2625	133,8	382,8
0,263	162,8	455,3
0,2635	190,5	517,6
0,264	213,8	560,1
0,2645	228,8	575,8
0,265	233,6	564,3
0,2655	227,8	530,6
0,266	212,0	479,7
0,2665	187,5	412,7
0,267	155,7	328,2
0,2675	119,2	227,9
0,268	81,0	118,4
0,2685	43,9	8,8
0,269	9,6	-94,4
0,2695	-21,1	-189,7
0,27	-48,4	-277,9
0,2705	-73,2	-360,0
0,271	-96,1	-435,2
0,2715	-117,5	-501,2
0,272	-136,9	-552,3
0,2725	-152,7	-581,9
0,273	-162,9	-585,7
0,2735	-166,2	-565,5
0,274	-162,6	-526,8
0,2745	-153,0	-472,8
0,275	-137,6	-402,5
0,2755	-115,8	-314,5
0,276	-87,3	-211,6
0,2765	-53,5	-101,9
0,277	-16,9	5,1
0,2775	18,8	103,3
0,278	51,1	191,8
0,2785	79,4	273,6
0,279	103,9	352,3
0,2795	124,5	428,1
0,28	140,2	495,5
0,2805	150,0	545,7
0,281	154,0	570,9
0,2815	153,4	569,3
0,282	149,4	545,0
0,2825	143,2	503,4
0,283	134,5	446,2
0,2835	121,8	370,7
0,284	103,9	275,9
0,2845	81,3	166,8
0,285	56,2	53,9
0,2855	31,0	-52,9
0,286	7,5	-149,6
0,2865	-14,4	-237,2
0,287	-35,3	-317,8
0,2875	-55,8	-392,2
0,288	-76,5	-458,9
0,2885	-97,3	-514,3
0,289	-116,4	-552,6
0,2895	-131,3	-568,5
0,29	-140,0	-560,6
0,2905	-141,6	-531,7
0,291	-136,4	-484,8
0,2915	-124,9	-420,3
0,292	-107,5	-337,2
0,2925	-84,6	-237,9
0,293	-59,0	-129,7
0,2935	-37,2	-22,2
0,294	-24,8	76,8
0,2945	-22,4	164,4
0,295	-23,7	242,7
0,2955	-20,1	316,4
0,296	-5,9	388,8
0,2965	19,9	457,8
0,297	54,4	515,3
0,2975	92,5	552,1
0,298	128,8	562,9
0,2985	159,0	548,8
0,299	180,4	514,4
0,2995	191,6	462,1
0,3	191,8	391,0
0,3005	180,6	300,6
0,301	158,3	195,2
0,3015	126,6	83,4
0,302	88,8	-25,8
0,3025	49,1	-127,3
0,303	11,1	-220,4
0,3035	-23,4	-306,3
0,304	-54,3	-385,5
0,3045	-82,9	-457,0
0,305	-109,8	-517,7
0,3055	-134,4	-561,3
0,306	-154,0	-581,6
0,3065	-165,4	-576,1
0,307	-166,3	-548,2
0,3075	-156,7	-503,3
0,308	-139,2	-444,1
0,3085	-116,6	-369,4
0,309	-90,5	-278,7
0,3095	-61,4	-176,1
0,31	-29,8	-69,6
0,3105	2,8	32,8
0,311	34,0	126,7
0,3115	62,0	212,3
0,312	86,7	292,8
0,3125	109,5	371,2
0,313	131,2	446,0
0,3135	151,3	509,8
0,314	167,4	553,1
0,3145	177,3	569,5
0,315	178,4	559,5
0,3155	169,2	528,3
0,316	149,4	480,3
0,3165	121,9	415,8
0,317	90,9	332,9
0,3175	59,8	232,9
0,318	30,2	122,4
0,3185	2,8	10,8
0,319	-22,0	-94,6
0,3195	-44,1	-191,3
0,32	-63,8	-279,8
0,3205	-81,4	-361,0
0,321	-97,2	-434,7
0,3215	-111,0	-498,8
0,322	-122,4	-548,2
0,3225	-130,1	-576,4
0,323	-133,3	-579,8
0,3235	-132,4	-560,2
0,324	-129,7	-522,7
0,3245	-126,1	-470,5
0,325	-120,4	-402,6
0,3255	-109,8	-317,0
0,326	-92,3	-216,1
0,3265	-68,7	-107,7
0,327	-41,3	-1,1
0,3275	-13,2	97,2
0,328	14,0	185,5
0,3285	39,9	266,8
0,329	65,6	344,9
0,3295	91,5	420,6
0,33	117,0	488,8
0,3305	139,4	539,9
0,331	155,1	565,7
0,3315	161,7	564,1
0,332	159,3	539,3
0,3325	150,2	497,5
0,333	136,6	440,7
0,3335	119,4	367,0
0,334	98,3	275,7
0,3345	72,7	171,3
0,335	43,4	62,6
0,3355	12,2	-42,5
0,336	-19,3	-140,7
0,3365	-49,7	-232,2
0,337	-78,3	-317,8
0,3375	-104,2	-396,3
0,338	-126,6	-465,4
0,3385	-144,8	-520,6
0,339	-158,0	-556,0
0,3395	-165,4	-567,2
0,34	-166,2	-554,5
0,3405	-160,4	-522,6
0,341	-148,3	-475,9
0,3415	-130,3	-414,4
0,342	-106,9	-335,5
0,3425	-79,1	-240,0
0,343	-48,8	-134,2
0,3435	-17,5	-27,3
0,344	13,2	73,2
0,3445	42,3	164,4
0,345	69,4	247,4
0,3455	94,4	325,8
0,346	117,4	401,1
0,3465	138,4	470,6
0,347	156,5	526,0
0,3475	170,0	558,5
0,348	177,2	564,1
0,3485	177,5	545,6
0,349	172,0	508,9
0,3495	161,9	457,3
0,35	146,7	389,5
0,3505	122,8	303,9
0,351	87,4	203,0
0,3515	41,8	94,5
0,352	-8,0	-12,9
0,3525	-55,5	-113,7
0,353	-97,2	-207,0
0,3535	-132,8	-293,9
0,354	-162,7	-374,8
0,3545	-186,9	-448,6
0,355	-204,8	-511,3
0,3555	-215,5	-556,8
0,356	-218,0	-578,4
0,3565	-211,9	-574,1
0,357	-198,0	-548,0
0,3575	-178,8	-505,5
0,358	-156,8	-448,8
0,3585	-133,4	-375,7
0,359	-107,7	-284,8
0,3595	-78,9	-180,4
0,36	-47,5	-71,4
0,3605	-15,8	33,1
0,361	14,4	128,1
0,3615	42,7	213,5
0,362	69,5	292,5
0,3625	95,5	368,1
0,363	120,5	439,7
0,3635	143,2	500,9
0,364	162,2	542,7
0,3645	175,7	559,0
0,365	182,8	549,9
0,3655	184,2	520,4
0,366	180,6	475,1
0,3665	172,3	414,3
0,367	158,8	336,0
0,3675	139,1	240,9
0,368	113,2	135,1
0,3685	82,8	27,8
0,369	50,3	-73,7
0,3695	18,3	-167,3
0,37	-12,0	-254,4
0,3705	-40,3	-335,8
0,371	-66,7	-410,8
0,3715	-91,0	-476,4
0,372	-111,9	-527,2
0,3725	-127,5	-557,3
0,373	-135,9	-563,5
0,3735	-136,6	-547,7
0,374	-130,3	-514,3
0,3745	-118,3	-465,8
0,375	-101,7	-400,8
0,3755	-80,6	-317,4
0,376	-55,4	-218,2
0,3765	-27,3	-111,1
0,377	2,0	-5,6
0,3775	30,3	91,6
0,378	55,3	179,0
0,3785	75,8	259,3
0,379	92,1	336,6
0,3795	106,4	411,6
0,38	120,4	479,6
0,3805	133,8	531,5
0,381	144,8	559,3
0,3815	151,6	560,4
0,382	153,0	538,5
0,3825	148,8	498,5
0,383	139,1	442,4
0,3835	123,7	368,8
0,384	102,5	277,4
0,3845	76,3	173,1
0,385	46,8	64,8
0,3855	16,1	-39,7
0,386	-14,4	-136,8
0,3865	-43,9	-227,4
0,387	-72,0	-312,6
0,3875	-98,6	-391,9
0,388	-123,0	-463,1
0,3885	-143,5	-521,1
0,389	-157,5	-558,8
0,3895	-163,3	-571,0
0,39	-160,8	-558,0
0,3905	-151,9	-525,1
0,391	-139,1	-477,6
0,3915	-124,2	-416,5
0,392	-106,9	-339,4
0,3925	-85,8	-246,7
0,393	-60,5	-143,8
0,3935	-31,8	-39,8
0,394	-1,2	57,9
0,3945	29,5	146,8
0,395	59,6	229,2
0,3955	89,2	309,1
0,396	118,0	388,1
0,3965	145,1	462,3
0,397	168,2	522,1
0,3975	184,8	557,6
0,398	193,4	564,8
0,3985	193,7	546,9
0,399	187,0	510,3
0,3995	174,5	459,0
0,4	156,5	392,3
0,4005	132,6	308,3
0,401	103,3	209,5
0,4015	69,9	103,0
0,402	34,8	-2,5
0,4025	-0,3	-102,0
0,403	-34,0	-194,4
0,4035	-65,6	-280,6
0,404	-94,7	-360,5
0,4045	-121,6	-432,9
0,405	-146,4	-494,2
0,4055	-169,7	-538,5
0,406	-193,5	-559,6
0,4065	-219,2	-555,7
0,407	-244,4	-530,5
0,4075	-262,8	-489,5
0,408	-267,9	-435,2
0,4085	-255,8	-365,7
0,409	-226,2	-279,5
0,4095	-181,4	-179,8
0,41	-125,8	-74,3
0,4105	-64,8	28,4
0,411	-3,6	123,0
0,4115	54,5	208,9
0,412	108,1	289,0
0,4125	156,6	365,9
0,413	198,9	438,3
0,4135	232,7	499,8
0,414	255,2	541,8
0,4145	264,4	558,5
0,415	260,9	550,3
0,4155	247,3	522,3
0,416	227,3	478,1
0,4165	202,9	417,4
0,417	174,3	337,8
0,4175	141,5	240,3
0,418	105,4	131,9
0,4185	67,9	22,4
0,419	31,5	-81,2
0,4195	-2,0	-177,0
0,42	-32,0	-266,4
0,4205	-59,1	-350,7
0,421	-84,3	-429,1
0,4215	-108,2	-498,5
0,422	-129,6	-552,8
0,4225	-146,3	-584,6
0,423	-156,6	-590,1
0,4235	-160,0	-571,7
0,424	-157,3	-535,2
0,4245	-149,4	-483,9
0,425	-136,1	-416,7
0,4255	-117,0	-331,6
0,426	-92,1	-231,4
0,4265	-63,0	-123,8
0,427	-32,2	-18,3
0,4275	-2,0	79,0
0,428	26,3	166,8
0,4285	53,1	248,3
0,429	79,0	327,2
0,4295	104,1	404,0
0,43	127,6	473,6
0,4305	147,1	526,8
0,431	160,6	555,5
0,4315	167,0	557,3
0,432	166,8	536,1
0,4325	161,3	497,3
0,433	150,8	443,0
0,4335	134,7	371,7
0,434	112,3	282,0
0,4345	84,1	177,9
0,435	51,5	68,3
0,4355	16,3	-38,1
0,436	-19,8	-136,9
0,4365	-55,3	-228,5
0,437	-88,5	-313,8
0,4375	-118,6	-392,6
0,438	-145,1	-462,6
0,4385	-168,2	-519,7
0,439	-189,3	-557,9
0,4395	-209,3	-572,2
0,44	-227,4	-562,0
0,4405	-241,1	-531,9
0,441	-247,0	-486,4
0,4415	-242,3	-425,9
0,442	-225,4	-348,7
0,4425	-196,5	-255,5
0,443	-157,6	-152,6
0,4435	-112,5	-48,4
0,444	-64,8	50,3
0,4445	-16,8	141,2
0,445	31,1	225,6
0,4455	78,3	306,5
0,446	123,0	384,9
0,4465	161,0	457,3
0,447	188,2	515,5
0,4475	202,5	550,7
0,448	205,7	559,3
0,4485	201,2	543,7
0,449	191,8	509,6
0,4495	178,7	459,9
0,45	161,2	393,5
0,4505	138,3	308,5
0,451	109,7	207,3
0,4515	76,7	97,8
0,452	42,0	-10,7
0,4525	8,3	-112,1
0,453	-22,4	-205,4
0,4535	-49,2	-292,0
0,454	-71,9	-372,4
0,4545	-91,8	-445,4
0,455	-110,6	-507,3
0,4555	-129,3	-552,0
0,456	-146,4	-573,2
0,4565	-158,9	-568,8
0,457	-164,3	-542,5
0,4575	-161,7	-499,8
0,458	-151,3	-442,6
0,4585	-133,8	-368,8
0,459	-109,8	-277,5
0,4595	-80,4	-173,0
0,46	-47,6	-64,3
0,4605	-14,0	39,3
0,461	18,0	132,7
0,4615	47,7	216,0
0,462	75,8	293,3
0,4625	103,3	368,3
0,463	130,7	439,8
0,4635	156,8	500,8
0,464	179,3	541,6
0,4645	195,4	556,3
0,465	203,5	545,8
0,4655	203,4	516,2
0,466	196,2	472,2
0,4665	181,9	413,4
0,467	160,1	336,7
0,4675	131,3	242,1
0,468	97,3	135,9
0,4685	61,1	27,5
0,469	24,9	-75,4
0,4695	-10,6	-170,5
0,47	-44,9	-258,8
0,4705	-77,4	-341,5
0,471	-106,6	-418,1
0,4715	-131,7	-486,1
0,472	-151,7	-540,3
0,4725	-165,3	-574,4
0,473	-171,1	-584,3
0,4735	-168,9	-571,0
0,474	-159,6	-538,7
0,4745	-144,9	-489,9
0,475	-125,8	-423,6
0,4755	-102,3	-338,6
0,476	-74,2	-237,5
0,4765	-42,5	-128,3
0,477	-9,3	-20,9
0,4775	23,1	78,0
0,478	53,2	166,9
0,4785	81,0	249,0
0,479	107,2	328,3
0,4795	132,1	406,0
0,48	154,9	476,8
0,4805	173,7	531,2
0,481	186,3	560,5
0,4815	191,4	562,1
0,482	189,0	540,1
0,4825	180,3	500,4
0,483	166,5	445,4
0,4835	148,3	373,4
0,484	125,7	283,6
0,4845	98,6	179,9
0,485	68,3	71,2
0,4855	36,7	-34,1
0,486	5,8	-132,0
0,4865	-23,6	-222,8
0,487	-51,4	-307,9
0,4875	-77,8	-387,2
0,488	-102,6	-458,7
0,4885	-124,9	-518,2
0,489	-143,3	-559,6
0,4895	-156,0	-577,4
0,49	-161,8	-570,2
0,4905	-160,6	-541,6
0,491	-153,3	-496,1
0,4915	-140,5	-434,8
0,492	-122,6	-356,3
0,4925	-100,0	-261,3
0,493	-74,2	-155,4
0,4935	-46,6	-47,7
0,494	-18,5	54,1
0,4945	9,2	146,4
0,495	36,3	230,3
0,4955	63,0	309,4
0,496	89,9	385,7
0,4965	116,3	456,5
0,497	140,2	514,0
0,4975	159,1	549,3
0,498	170,9	557,9
0,4985	174,9	541,9
0,499	171,9	506,8
0,4995	162,8	456,4
0,5	148,4	390,2
0,5005	128,6	306,7
0,501	103,6	208,0
0,5015	74,8	101,3
0,502	44,2	-4,6
0,5025	13,8	-104,3
0,503	-15,9	-197,0
0,5035	-45,1	-283,8
0,504	-73,2	-364,7
0,5045	-99,1	-438,3
0,505	-121,8	-501,3
0,5055	-140,2	-547,8
0,506	-153,3	-571,8
0,5065	-159,6	-570,8
0,507	-158,4	-547,8
0,5075	-150,3	-507,7
0,508	-136,7	-452,8
0,5085	-118,8	-381,4
0,509	-97,0	-292,3
0,5095	-71,4	-189,6
0,51	-42,9	-81,8
0,5105	-13,4	21,9
0,511	15,5	116,4
0,5115	42,6	201,8
0,512	65,9	281,8
0,5125	81,8	359,8
0,513	87,8	435,1
0,5135	85,5	501,0
0,514	79,8	547,5
0,5145	75,6	567,9
0,515	75,3	561,9
0,5155	79,2	534,7
0,516	86,3	490,8
0,5165	94,3	431,0
0,517	100,5	352,9
0,5175	102,2	257,1
0,518	98,0	149,4
0,5185	87,9	39,5
0,519	72,9	-65,1
0,5195	53,5	-161,8
0,52	30,3	-251,4
0,5205	3,8	-335,1
0,521	-25,1	-412,4
0,5215	-54,8	-480,6
0,522	-83,1	-534,4
0,5225	-107,1	-566,9
0,523	-124,4	-573,8
0,5235	-134,0	-556,4
0,524	-136,8	-520,6
0,5245	-134,4	-469,9
0,525	-127,9	-404,0
0,5255	-116,7	-321,0
0,526	-98,8	-222,8
0,5265	-73,5	-116,4
0,527	-43,0	-10,7
0,5275	-10,9	87,9
0,528	19,4	177,7
0,5285	46,5	260,8
0,529	70,5	340,5
0,5295	91,1	417,2
0,53	107,3	486,0
0,5305	117,2	537,3
0,531	119,6	562,7
0,5315	115,3	560,3
0,532	106,7	534,9
0,5325	95,9	493,9
0,533	83,8	440,3
0,5335	69,3	371,6
0,534	51,1	286,0
0,5345	28,6	186,2
0,535	3,1	80,3
0,5355	-23,7	-23,8
0,536	-50,5	-121,8
0,5365	-76,3	-213,4
0,537	-100,1	-299,0
0,5375	-121,0	-377,7
0,538	-138,2	-447,1
0,5385	-150,6	-503,3
0,539	-157,7	-540,9
0,5395	-158,9	-555,3
0,54	-154,3	-545,8
0,5405	-144,6	-516,5
0,541	-130,8	-472,2
0,5415	-112,7	-414,1
0,542	-89,3	-340,5
0,5425	-60,1	-250,8
0,543	-27,1	-149,7
0,5435	5,5	-46,0
0,544	33,5	51,8
0,5445	55,8	139,5
0,545	74,5	219,2
0,5455	92,7	295,9
0,546	112,1	372,6
0,5465	132,2	446,2
0,547	150,6	507,7
0,5475	165,0	546,8
0,548	173,5	557,8
0,5485	175,7	541,8
0,549	170,7	504,8
0,5495	156,3	451,8
0,55	129,8	383,8
0,5505	92,1	299,7
0,551	47,9	201,3
0,5515	4,2	95,2
0,552	-34,2	-10,3
0,5525	-65,0	-109,8
0,553	-88,5	-202,5
0,5535	-106,2	-289,4
0,554	-119,8	-370,7
0,5545	-130,2	-444,8
0,555	-137,5	-508,3
0,5555	-141,1	-555,6
0,556	-140,6	-580,5
0,5565	-135,6	-580,2
0,557	-126,6	-557,0
0,5575	-114,3	-515,7
0,558	-99,2	-458,8
0,5585	-81,2	-385,0
0,559	-60,1	-293,9
0,5595	-36,9	-189,6
0,56	-14,2	-80,7
0,5605	5,0	23,6
0,561	19,7	118,5
0,5615	31,2	204,0
0,562	42,0	284,0
0,5625	54,6	361,4
0,563	70,2	435,6
0,5635	89,2	500,2
0,564	110,7	546,2
0,5645	132,8	566,8
0,565	152,4	561,3
0,5655	166,0	533,6
0,566	170,9	487,4
0,5665	166,1	423,7
0,567	152,7	341,8
0,5675	132,2	244,1
0,568	106,4	137,1
0,5685	77,7	29,5
0,569	47,8	-72,1
0,5695	18,3	-166,3
0,57	-10,5	-254,6
0,5705	-38,4	-338,2
0,571	-64,9	-416,1
0,5715	-89,0	-485,7
0,572	-108,8	-541,7
0,5725	-122,8	-577,0
0,573	-130,5	-586,2
0,5735	-132,6	-570,2
0,574	-130,1	-534,7
0,5745	-123,6	-483,8
0,575	-112,5	-417,4
0,5755	-95,8	-333,7
0,576	-72,7	-234,6
0,5765	-43,9	-127,8
0,577	-11,7	-22,8
0,5775	20,5	73,9
0,578	49,7	160,9
0,5785	75,1	241,2
0,579	97,6	318,9
0,5795	119,2	395,3
0,58	140,1	465,5
0,5805	158,7	520,5
0,581	172,2	551,6
0,5815	178,8	555,8
0,582	178,5	536,3
0,5825	172,4	498,2
0,583	161,0	443,6
0,5835	144,5	371,3
0,584	122,4	280,6
0,5845	95,0	176,0
0,585	63,6	66,2
0,5855	30,5	-40,2
0,586	-2,2	-139,2
0,5865	-33,3	-230,8
0,587	-62,8	-315,9
0,5875	-90,4	-394,5
0,588	-115,9	-464,8
0,5885	-137,9	-523,2
0,589	-154,7	-563,4
0,5895	-164,8	-579,8
0,59	-167,6	-571,3
0,5905	-163,8	-542,0
0,591	-154,7	-496,8
0,5915	-141,5	-436,5
0,592	-124,7	-359,6
0,5925	-104,1	-266,4
0,593	-80,0	-162,6
0,5935	-53,4	-56,7
0,594	-25,8	43,8
0,5945	2,0	135,3
0,595	29,3	218,8
0,5955	56,0	297,9
0,596	82,2	375,0
0,5965	107,3	447,8
0,597	130,3	508,5
0,5975	148,7	547,6
0,598	160,9	560,0
0,5985	166,3	547,6
0,599	165,3	515,9
0,5995	158,9	468,4
0,6	147,1	404,5
0,6005	129,5	322,0
0,601	106,1	223,2
0,6015	78,5	115,4
0,602	49,0	8,0
0,6025	20,3	-93,3
0,603	-6,3	-187,6
0,6035	-30,6	-276,0
0,604	-53,5	-358,9
0,6045	-75,6	-434,6
0,605	-96,6	-499,5
0,6055	-115,5	-547,7
0,606	-131,0	-572,9
0,6065	-141,8	-572,3
0,607	-146,7	-549,3
0,6075	-145,2	-509,0
0,608	-137,5	-454,1
0,6085	-123,5	-383,1
0,609	-103,4	-294,6
0,6095	-77,8	-192,3
0,61	-48,8	-84,4
0,6105	-22,2	19,8
0,611	-4,4	114,7
0,6115	1,9	200,2
0,612	1,4	279,8
0,6125	2,7	356,6
0,613	12,5	429,3
0,6135	32,2	491,7
0,614	59,1	534,9
0,6145	88,3	553,3
0,615	115,7	547,1
0,6155	137,8	520,6
0,616	152,5	478,3
0,6165	158,2	420,5
0,617	154,0	344,9
0,6175	139,7	251,1
0,618	116,4	144,7
0,6185	86,4	34,9
0,619	52,8	-70,1
0,6195	18,2	-167,1
0,62	-15,5	-256,7
0,6205	-47,2	-339,7
0,621	-76,3	-415,6
0,6215	-102,4	-482,4
0,622	-125,1	-535,3
0,6225	-143,5	-568,3
0,623	-156,7	-577,0
0,6235	-163,7	-562,0
0,624	-162,9	-527,8
0,6245	-153,0	-478,3
0,625	-134,4	-413,1
0,6255	-109,0	-330,2
0,626	-79,3	-231,4
0,6265	-47,4	-124,0
0,627	-14,3	-17,4
0,6275	19,1	81,7
0,628	51,1	171,2
0,6285	79,7	253,4
0,629	103,8	331,5
0,6295	123,5	406,6
0,63	140,3	475,0
0,6305	154,7	528,2
0,631	165,9	558,3
0,6315	172,5	562,2
0,632	172,8	543,1
0,6325	165,5	506,3
0,633	150,8	454,4
0,6335	129,6	385,7
0,634	103,0	298,8
0,6345	72,6	196,6
0,635	40,3	87,2
0,6355	8,3	-21,1
0,636	-21,9	-123,7
0,6365	-50,1	-220,7
0,637	-76,1	-312,5
0,6375	-99,8	-397,8
0,638	-120,6	-473,4
0,6385	-137,7	-534,3
0,639	-150,2	-574,4
0,6395	-157,3	-588,8
0,64	-158,9	-577,5
0,6405	-155,1	-546,3
0,641	-146,3	-500,8
0,6415	-132,2	-441,9
0,642	-112,0	-366,4
0,6425	-85,3	-273,1
0,643	-52,9	-167,0
0,6435	-17,4	-57,7
0,644	17,8	46,0
0,6445	49,6	139,5
0,645	77,5	223,8
0,6455	102,7	302,6
0,646	126,5	378,6
0,6465	149,3	449,6
0,647	169,4	507,8
0,6475	184,4	544,1
0,648	192,6	553,7
0,6485	193,6	538,8
0,649	188,4	505,5
0,6495	178,1	457,8
0,65	162,9	394,8
0,6505	142,7	313,8
0,651	116,0	216,1
0,6515	82,3	108,7
0,652	42,3	0,7
0,6525	-1,5	-101,3
0,653	-46,2	-195,9
0,6535	-89,6	-283,7
0,654	-130,2	-365,3
0,6545	-166,0	-439,1
0,655	-195,2	-501,8
0,6555	-218,2	-547,9
0,656	-236,0	-571,7
0,6565	-249,1	-570,4
0,657	-255,4	-547,0
0,6575	-252,4	-506,5
0,658	-238,6	-451,3
0,6585	-214,4	-380,2
0,659	-181,1	-292,0
0,6595	-140,9	-190,5
0,66	-96,6	-84,0
0,6605	-50,7	19,3
0,661	-5,0	114,4
0,6615	39,0	201,1
0,662	80,1	281,8
0,6625	118,0	359,0
0,663	152,7	432,3
0,6635	182,9	496,2
0,664	206,0	541,6
0,6645	218,9	561,5
0,665	220,5	554,8
0,6655	211,9	526,8
0,666	194,9	482,8
0,6665	170,5	423,6
0,667	139,5	346,8
0,6675	103,5	252,3
0,668	65,1	145,3
0,6685	26,6	34,8
0,669	-9,9	-71,7
0,6695	-42,4	-170,7
0,67	-69,4	-262,1
0,6705	-90,5	-346,1
0,671	-106,9	-422,1
0,6715	-120,5	-488,2
0,672	-132,0	-540,3
0,6725	-140,7	-572,9
0,673	-144,8	-582,0
0,6735	-143,5	-568,2
0,674	-136,8	-536,1
0,6745	-125,7	-488,7
0,675	-110,9	-425,1
0,6755	-92,7	-343,3
0,676	-70,9	-244,9
0,6765	-45,7	-137,2
0,677	-18,0	-29,8
0,6775	10,2	70,1
0,678	37,3	160,2
0,6785	62,8	242,6
0,679	87,1	320,9
0,6795	110,8	396,5
0,68	133,4	465,7
0,6805	153,8	519,9
0,681	169,9	551,1
0,6815	180,3	555,8
0,682	184,1	537,1
0,6825	181,6	500,2
0,683	172,8	447,8
0,6835	157,6	378,3
0,684	135,8	290,4
0,6845	108,2	187,4
0,685	76,9	77,4
0,6855	45,1	-30,3
0,686	14,8	-130,7
0,6865	-13,4	-223,1
0,687	-40,5	-308,8
0,6875	-67,2	-387,8
0,688	-93,5	-459,2
0,6885	-117,9	-519,0
0,689	-138,5	-561,2
0,6895	-153,0	-579,8
0,69	-159,8	-573,4
0,6905	-158,1	-545,9
0,691	-148,4	-502,1
0,6915	-132,5	-443,2
0,692	-111,7	-367,4
0,6925	-87,8	-274,7
0,693	-62,0	-170,3
0,6935	-35,6	-63,3
0,694	-9,8	38,0
0,6945	14,8	129,2
0,695	38,4	210,8
0,6955	61,7	286,9
0,696	85,4	361,5
0,6965	109,4	433,6
0,697	132,3	495,8
0,6975	152,0	538,3
0,698	166,1	554,9
0,6985	173,7	546,3
0,699	174,9	517,6
0,6995	170,3	472,4
0,7	159,6	410,4
0,7005	141,7	329,6
0,701	116,4	231,6
0,7015	85,8	123,8
0,702	52,9	15,5
0,7025	20,4	-86,8
0,703	-10,1	-181,9
0,7035	-38,4	-271,1
0,704	-64,6	-354,8
0,7045	-88,9	-431,6
0,705	-111,1	-498,0
0,7055	-130,3	-548,3
0,706	-144,6	-576,1
0,7065	-152,4	-578,7
0,707	-152,9	-558,8
0,7075	-146,6	-521,1
0,708	-135,0	-467,9
0,7085	-120,0	-397,7
0,709	-102,8	-309,1
0,7095	-83,3	-205,7
0,71	-60,8	-96,6
0,7105	-35,6	8,5
0,711	-9,1	104,0
0,7115	17,2	189,5
0,712	42,9	268,9
0,7125	68,7	346,0
0,713	94,5	420,9
0,7135	119,2	487,5
0,714	140,3	536,2
0,7145	155,5	559,5
0,715	163,8	556,3
0,7155	165,3	530,8
0,716	161,3	487,9
0,7165	152,4	429,2
0,717	138,5	353,1
0,7175	118,5	259,8
0,718	92,6	153,9
0,7185	62,1	44,0
0,719	29,6	-62,4
0,7195	-2,7	-161,9
0,72	-33,3	-254,3
0,7205	-61,5	-339,9
0,721	-87,0	-417,9
0,7215	-109,8	-486,3
0,722	-129,9	-540,7
0,7225	-148,6	-575,1
0,723	-168,3	-585,1
0,7235	-190,6	-571,0
0,724	-213,0	-537,6
0,7245	-229,3	-488,9
0,725	-232,9	-424,9
0,7255	-219,8	-343,2
0,726	-189,8	-245,1
0,7265	-145,8	-137,2
0,727	-92,8	-29,1
0,7275	-36,0	71,5
0,728	19,9	161,9
0,7285	72,2	244,2
0,729	119,5	322,2
0,7295	161,6	397,4
0,73	197,5	466,3
0,7305	225,3	520,7
0,731	242,7	552,6
0,7315	248,6	558,3
0,732	243,6	540,4
0,7325	230,0	503,9
0,733	210,5	451,7
0,7335	186,6	382,6
0,734	158,1	295,4
0,7345	124,7	193,3
0,735	86,7	84,7
0,7355	45,8	-21,9
0,736	5,0	-121,5
0,7365	-32,0	-213,8
0,737	-62,8	-299,9
0,7375	-87,0	-379,9
0,738	-106,6	-452,3
0,7385	-123,3	-513,5
0,739	-137,7	-557,7
0,7395	-148,3	-578,5
0,74	-153,5	-573,8
0,7405	-152,6	-547,1
0,741	-146,3	-503,7
0,7415	-135,2	-445,5
0,742	-119,3	-371,1
0,7425	-98,2	-280,0
0,743	-72,3	-176,6
0,7435	-42,9	-69,4
0,744	-12,2	33,3
0,7445	17,9	126,8
0,745	45,7	210,9
0,7455	70,8	288,7
0,746	93,1	363,3
0,7465	113,1	433,8
0,747	130,3	494,1
0,7475	143,7	534,9
0,748	151,8	550,4
0,7485	154,0	540,8
0,749	150,3	510,7
0,7495	141,3	464,3
0,75	127,7	401,6
0,7505	109,9	321,0
0,751	87,8	224,1
0,7515	61,5	117,5
0,752	32,3	10,2
0,7525	2,4	-91,3
0,753	-26,7	-184,9
0,7535	-54,4	-271,5
0,754	-80,6	-351,8
0,7545	-104,9	-424,8
0,755	-126,3	-487,6
0,7555	-143,9	-535,0
0,756	-156,4	-561,1
0,7565	-162,4	-562,6
0,757	-161,7	-541,9
0,7575	-155,3	-504,1
0,758	-145,4	-452,0
0,7585	-133,4	-384,6
0,759	-118,8	-300,5
0,7595	-100,1	-202,3
0,76	-76,7	-97,9
0,7605	-49,3	3,4
0,761	-19,9	95,8
0,7615	9,4	178,8
0,762	37,3	255,5
0,7625	63,9	329,7
0,763	89,6	402,2
0,7635	112,5	468,3
0,764	128,9	518,5
0,7645	135,4	544,3
0,765	132,1	543,3
0,7655	122,4	519,3
0,766	110,5	477,5
0,7665	98,0	419,5
0,767	84,6	343,8
0,7675	68,6	250,7
0,768	49,5	145,6
0,7685	28,4	37,3
0,769	7,4	-66,2
0,7695	-12,3	-161,8
0,77	-30,9	-250,2
0,7705	-49,8	-332,7
0,771	-69,8	-408,9
0,7715	-90,3	-476,9
0,772	-110,0	-532,1
0,7725	-126,9	-568,1
0,773	-138,5	-580,0
0,7735	-143,0	-567,9
0,774	-139,8	-536,2
0,7745	-129,9	-488,9
0,775	-114,3	-425,8
0,7755	-93,5	-344,6
0,776	-68,2	-246,2
0,7765	-39,6	-137,4
0,777	-10,1	-28,3
0,7775	18,0	73,0
0,778	42,9	163,5
0,7785	64,8	245,1
0,779	84,8	322,3
0,7795	104,7	397,2
0,78	124,8	466,8
0,7805	143,9	522,7
0,781	160,0	555,7
0,7815	170,8	561,8
0,782	174,5	543,5
0,7825	169,2	506,3
0,783	154,0	453,2
0,7835	129,2	383,2
0,784	96,5	294,9
0,7845	59,2	191,1
0,785	20,9	79,9
0,7855	-15,8	-29,8
0,786	-49,7	-132,7
0,7865	-80,7	-227,6
0,787	-109,4	-315,0
0,7875	-137,1	-394,7
0,788	-165,8	-465,5
0,7885	-195,8	-524,3
0,789	-223,7	-565,5
0,7895	-243,5	-583,6
0,79	-251,2	-576,9
0,7905	-246,4	-549,0
0,791	-231,3	-504,6
0,7915	-207,4	-445,3
0,792	-175,4	-368,9
0,7925	-135,9	-274,8
0,793	-91,0	-167,8
0,7935	-44,6	-57,4
0,794	-0,7	47,4
0,7945	38,3	142,1
0,795	72,2	227,2
0,7955	102,4	306,6
0,796	130,6	383,4
0,7965	157,0	456,4
0,797	179,9	518,1
0,7975	196,3	558,2
0,798	203,5	570,7
0,7985	200,5	557,0
0,799	188,6	523,9
0,7995	170,4	476,7
0,8	147,8	414,9
0,8005	121,4	335,3
0,801	91,6	237,4
0,8015	60,0	127,3
0,802	30,1	15,0
0,8025	4,7	-91,1
0,803	-15,7	-187,8
0,8035	-33,2	-276,0
0,804	-50,5	-357,3
0,8045	-69,2	-431,8
0,805	-89,1	-497,2
0,8055	-108,7	-548,5
0,806	-125,0	-579,1
0,8065	-135,3	-585,8
0,807	-138,4	-570,1
0,8075	-135,7	-536,6
0,808	-128,3	-487,3
0,8085	-116,3	-420,5
0,809	-98,2	-334,1
0,8095	-74,5	-231,3
0,81	-50,1	-120,7
0,8105	-32,8	-12,6
0,811	-26,8	86,1
0,8115	-28,8	174,0
0,812	-30,3	254,5
0,8125	-23,7	331,6
0,813	-5,5	406,1
0,8135	23,3	473,2
0,814	58,6	523,6
0,8145	95,6	549,8
0,815	129,8	549,8
0,8155	158,3	527,3
0,816	179,1	486,8
0,8165	191,3	430,0
0,817	193,7	355,1
0,8175	185,4	262,2
0,818	166,9	156,3
0,8185	140,2	46,9
0,819	107,8	-58,0
0,8195	72,5	-155,0
0,82	36,2	-245,1
0,8205	0,1	-329,4
0,821	-34,9	-407,5
0,8215	-68,0	-477,1
0,822	-98,3	-533,5
0,8225	-124,2	-570,0
0,823	-143,9	-581,6
0,8235	-155,1	-568,5
0,824	-156,2	-535,8
0,8245	-147,1	-488,0
0,825	-129,2	-425,2
0,8255	-105,0	-345,3
0,826	-76,3	-249,3
0,8265	-45,3	-143,6
0,827	-13,8	-37,6
0,8275	16,7	61,2
0,828	45,0	150,5
0,8285	71,0	232,2
0,829	95,3	310,3
0,8295	118,7	386,5
0,83	141,0	457,4
0,8305	160,5	514,3
0,831	174,8	548,3
0,8315	182,0	555,2
0,832	182,0	537,8
0,8325	175,7	501,4
0,833	164,4	449,4
0,8335	148,3	380,9
0,834	127,2	294,6
0,8345	101,0	193,3
0,835	71,3	85,1
0,8355	39,9	-21,1
0,836	8,8	-120,3
0,8365	-21,3	-211,7
0,837	-50,0	-296,3
0,8375	-77,2	-374,8
0,838	-102,2	-446,1
0,8385	-124,0	-506,6
0,839	-141,6	-550,5
0,8395	-153,6	-571,5
0,84	-159,1	-567,8
0,8405	-157,9	-542,8
0,841	-150,8	-501,8
0,8415	-138,6	-446,2
0,842	-121,8	-374,0
0,8425	-100,3	-284,0
0,843	-74,8	-180,3
0,8435	-46,2	-72,1
0,844	-16,5	31,4
0,8445	12,3	125,2
0,845	38,9	209,5
0,8455	63,6	287,7
0,846	87,1	362,9
0,8465	110,0	433,9
0,847	131,4	494,6
0,8475	149,1	535,8
0,848	160,7	551,7
0,8485	165,0	542,2
0,849	162,8	511,9
0,8495	155,3	465,6
0,85	143,5	403,8
0,8505	126,6	325,1
0,851	103,9	229,8
0,8515	75,8	123,1
0,852	44,2	13,5
0,8525	11,7	-91,9
0,853	-19,8	-189,7
0,8535	-49,3	-279,9
0,854	-76,4	-362,8
0,8545	-101,2	-438,1
0,855	-123,5	-503,5
0,8555	-142,5	-554,1
0,856	-156,7	-583,3
0,8565	-164,9	-587,1
0,857	-167,7	-567,2
0,8575	-167,2	-529,3
0,858	-166,1	-477,0
0,8585	-165,2	-409,4
0,859	-162,2	-324,7
0,8595	-153,1	-224,8
0,86	-135,3	-117,2
0,8605	-109,7	-11,4
0,861	-79,7	86,1
0,8615	-48,2	173,9
0,862	-16,2	255,1
0,8625	16,1	333,3
0,863	48,5	409,1
0,8635	79,4	477,3
0,864	106,5	528,6
0,8645	127,4	555,3
0,865	141,1	555,6
0,8655	147,6	533,6
0,866	147,9	494,2
0,8665	142,7	438,9
0,867	131,8	365,9
0,8675	115,5	275,0
0,868	93,8	171,1
0,8685	67,8	63,0
0,869	39,3	-41,1
0,8695	10,4	-137,7
0,87	-16,8	-227,8
0,8705	-42,5	-313,2
0,871	-67,3	-394,1
0,8715	-91,6	-467,9
0,872	-113,9	-528,6
0,8725	-132,0	-568,8
0,873	-143,8	-583,2
0,8735	-148,3	-572,5
0,874	-145,4	-541,7
0,8745	-135,3	-495,3
0,875	-118,5	-433,2
0,8755	-95,7	-353,0
0,876	-68,3	-255,6
0,8765	-38,4	-147,8
0,877	-8,3	-39,5
0,8775	20,3	60,8
0,878	47,2	149,6
0,8785	72,7	228,9
0,879	97,6	303,8
0,8795	121,6	377,3
0,88	143,5	446,7
0,8805	161,4	503,8
0,881	173,6	539,4
0,8815	179,1	548,6
0,882	178,0	533,5
0,8825	171,1	499,2
0,883	159,8	449,1
0,8835	145,0	382,2
0,884	126,0	297,1
0,8845	101,8	196,8
0,885	72,5	89,1
0,8855	40,4	-17,2
0,886	7,7	-117,0
0,8865	-23,8	-209,3
0,887	-53,2	-295,1
0,8875	-80,1	-374,3
0,888	-104,8	-445,4
0,8885	-128,8	-505,2
0,889	-154,0	-548,3
0,8895	-180,1	-569,3
0,89	-204,1	-566,9
0,8905	-222,5	-544,3
0,891	-232,6	-505,9
0,8915	-232,2	-452,5
0,892	-219,2	-381,9
0,8925	-193,4	-293,3
0,893	-157,2	-191,2
0,8935	-114,0	-84,3
0,894	-67,1	18,4
0,8945	-18,8	112,2
0,895	28,8	196,9
0,8955	73,6	275,8
0,896	114,0	351,6
0,8965	149,8	423,0
0,897	180,4	483,6
0,8975	204,5	524,8
0,898	219,8	541,3
0,8985	224,0	533,3
0,899	216,9	505,5
0,8995	200,2	461,9
0,9	177,1	402,4
0,9005	149,9	325,0
0,901	119,4	230,3
0,9015	86,3	124,5
0,902	52,5	17,0
0,9025	20,1	-85,1
0,903	-9,5	-179,8
0,9035	-36,1	-268,1
0,904	-60,5	-350,8
0,9045	-83,3	-427,0
0,905	-104,3	-493,5
0,9055	-122,4	-544,8
0,906	-135,8	-574,7
0,9065	-142,9	-579,4
0,907	-143,4	-561,0
0,9075	-138,0	-524,6
0,908	-127,9	-473,0
0,9085	-113,6	-405,8
0,909	-94,9	-322,3
0,9095	-72,1	-225,3
0,91	-46,1	-122,1
0,9105	-18,7	-20,1
0,911	8,0	75,2
0,9115	33,0	162,5
0,912	56,2	244,2
0,9125	78,4	323,5
0,913	100,3	400,8
0,9135	121,3	471,0
0,914	140,0	524,5
0,9145	152,4	552,8
0,915	152,9	553,8
0,9155	137,6	531,5
0,916	107,9	491,1
0,9165	71,1	434,7
0,917	34,6	360,9
0,9175	2,7	269,5
0,918	-23,0	165,5
0,9185	-41,9	57,6
0,919	-53,5	-46,3
0,9195	-58,3	-143,0
0,92	-58,7	-233,0
0,9205	-57,9	-317,4
0,921	-58,7	-395,4
0,9215	-62,2	-464,6
0,922	-67,7	-520,3
0,9225	-74,0	-556,8
0,923	-80,3	-569,2
0,9235	-86,0	-557,6
0,924	-90,4	-526,7
0,9245	-92,4	-480,8
0,925	-90,3	-420,6
0,9255	-82,0	-343,9
0,926	-66,0	-250,8
0,9265	-42,9	-147,1
0,927	-16,0	-41,5
0,9275	10,4	58,2
0,928	34,1	148,5
0,9285	56,3	230,7
0,929	79,4	308,5
0,9295	104,5	383,6
0,93	129,9	452,9
0,9305	152,4	507,8
0,931	169,1	539,5
0,9315	178,2	544,9
0,932	179,9	527,4
0,9325	175,5	492,6
0,933	166,6	443,1
0,9335	154,0	377,4
0,934	136,5	293,5
0,9345	113,0	193,7
0,935	83,7	85,6
0,9355	51,0	-21,9
0,936	18,0	-123,1
0,9365	-13,4	-216,5
0,937	-43,0	-303,0
0,9375	-70,9	-382,9
0,938	-97,1	-455,3
0,9385	-121,3	-517,1
0,939	-142,8	-562,4
0,9395	-159,9	-585,2
0,94	-171,1	-582,8
0,9405	-175,4	-558,3
0,941	-172,9	-516,6
0,9415	-164,0	-459,6
0,942	-149,0	-385,7
0,9425	-128,7	-294,0
0,943	-104,5	-189,0
0,9435	-79,0	-79,1
0,944	-54,5	26,7
0,9445	-31,9	123,5
0,945	-10,7	210,8
0,9455	10,8	292,0
0,946	33,8	370,0
0,9465	58,7	443,8
0,947	84,7	506,8
0,9475	109,6	549,9
0,948	130,4	566,6
0,9485	145,0	556,6
0,949	152,8	525,4
0,9495	154,3	478,6
0,95	149,1	417,3
0,9505	134,9	339,4
0,951	109,8	245,1
0,9515	75,1	139,8
0,952	35,6	32,3
0,9525	-3,1	-70,6
0,953	-37,9	-166,6
0,9535	-68,3	-256,4
0,954	-94,9	-340,6
0,9545	-118,0	-418,3
0,955	-137,0	-486,8
0,9555	-150,7	-540,6
0,956	-158,6	-572,7
0,9565	-160,4	-579,0
0,957	-157,0	-561,3
0,9575	-149,1	-525,6
0,958	-137,4	-476,4
0,9585	-121,8	-413,2
0,959	-101,2	-333,1
0,9595	-74,7	-236,3
0,96	-42,7	-129,3
0,9605	-7,5	-21,6
0,961	27,5	78,7
0,9615	60,1	168,7
0,962	89,6	250,9
0,9625	116,4	329,6
0,963	140,7	405,9
0,9635	162,1	474,9
0,964	179,6	526,9
0,9645	191,8	553,5
0,965	198,0	552,4
0,9655	198,3	527,9
0,966	193,5	486,3
0,9665	184,4	429,7
0,967	170,4	356,6
0,9675	150,1	265,8
0,968	122,9	161,4
0,9685	90,6	51,9
0,969	56,0	-54,1
0,9695	21,5	-152,5
0,97	-11,3	-243,3
0,9705	-42,2	-327,6
0,971	-70,9	-405,3
0,9715	-97,1	-474,6
0,972	-120,1	-531,2
0,9725	-138,6	-569,0
0,973	-151,0	-582,7
0,9735	-156,9	-571,6
0,974	-156,4	-540,5
0,9745	-150,2	-494,1
0,975	-138,1	-432,8
0,9755	-119,6	-354,3
0,976	-94,3	-258,7
0,9765	-63,5	-151,8
0,977	-29,8	-42,9
0,9775	3,7	59,8
0,978	34,6	152,8
0,9785	62,3	236,9
0,979	87,7	316,0
0,9795	111,8	392,5
0,98	135,3	464,2
0,9805	156,7	523,0
0,981	173,5	559,5
0,9815	183,6	569,0
0,982	186,0	553,4
0,9825	181,3	518,2
0,983	170,2	466,9
0,9835	153,3	398,6
0,984	130,6	311,8
0,9845	102,7	209,3
0,985	71,2	99,0
0,9855	38,3	-10,0
0,986	6,4	-112,5
0,9865	-23,9	-208,0
0,987	-52,5	-297,2
0,9875	-79,4	-379,9
0,988	-104,3	-454,6
0,9885	-126,3	-518,0
0,989	-144,5	-564,3
0,9895	-157,9	-587,5
0,99	-165,6	-585,6
0,9905	-168,3	-561,8
0,991	-167,2	-520,8
0,9915	-162,6	-464,5
0,992	-153,0	-391,4
0,9925	-136,4	-300,7
0,993	-113,4	-196,2
0,9935	-86,8	-86,7
0,994	-59,9	18,5
0,9945	-34,4	113,7
0,995	-9,8	198,8
0,9955	15,5	277,9
0,996	42,7	354,4
0,9965	71,5	427,5
0,997	100,3	490,8
0,9975	126,2	535,1
0,998	146,0	553,9
0,9985	157,8	546,8
0,999	161,7	518,4
0,9995	159,0	473,8
1	150,6	414,0
1,0005	136,9	336,9
1,001	118,1	242,4
1,0015	93,7	136,0
1,002	63,1	26,6
1,0025	26,8	-77,8
1,003	-13,3	-174,4
1,0035	-54,2	-263,3
1,004	-93,2	-345,4
1,0045	-128,9	-420,2
1,005	-159,9	-485,8
1,0055	-184,5	-537,3
1,006	-200,9	-568,3
1,0065	-207,7	-574,6
1,007	-204,6	-557,6
1,0075	-192,9	-522,5
1,008	-175,1	-472,4
1,0085	-154,3	-406,4
1,009	-133,3	-322,7
1,0095	-112,6	-223,8
1,01	-90,9	-117,8
1,0105	-66,6	-14,3
1,011	-39,5	80,8
1,0115	-12,9	166,5
1,012	7,6	245,7
1,0125	19,4	322,2
1,013	25,7	396,5
1,0135	33,6	464,1
1,014	47,8	516,4
1,0145	67,8	545,5
1,015	90,4	548,7
1,0155	113,1	529,2
1,016	134,4	491,8
1,0165	153,4	438,3
1,017	167,5	367,2
1,0175	173,5	277,8
1,018	169,2	174,7
1,0185	154,5	66,3
1,019	131,3	-39,3
1,0195	101,5	-137,8
1,02	66,8	-229,2
1,0205	29,1	-314,5
1,021	-9,3	-393,3
1,0215	-45,8	-463,2
1,022	-78,2	-520,2
1,0225	-104,3	-558,6
1,023	-122,7	-573,6
1,0235	-132,5	-564,9
1,024	-135,3	-536,8
1,0245	-132,9	-493,0
1,025	-125,7	-433,3
1,0255	-111,6	-355,3
1,026	-89,2	-259,7
1,0265	-59,9	-152,9
1,027	-27,7	-44,6
1,0275	3,6	57,3
1,028	32,1	149,2
1,0285	57,8	232,1
1,029	81,8	309,6
1,0295	105,3	383,8
1,03	127,8	452,4
1,0305	147,8	507,4
1,031	162,3	539,8
1,0315	169,6	544,9
1,032	169,3	524,9
1,0325	163,0	486,6
1,033	152,1	434,8
1,0335	137,3	369,6
1,034	117,8	288,4
1,0345	93,5	192,0
1,035	64,9	86,7
1,0355	34,1	-19,1
1,036	2,8	-119,9
1,0365	-27,7	-214,8
1,037	-56,8	-304,4
1,0375	-84,8	-387,8
1,038	-112,4	-462,5
1,0385	-140,2	-525,0
1,039	-166,8	-570,2
1,0395	-188,1	-592,7
1,04	-199,9	-590,3
1,0405	-200,3	-566,0
1,041	-190,4	-524,7
1,0415	-173,1	-468,7
1,042	-151,1	-396,2
1,0425	-125,8	-306,3
1,043	-98,0	-202,8
1,0435	-68,6	-94,4
1,044	-38,5	10,1
1,0445	-8,8	105,3
1,045	19,7	190,5
1,0455	46,4	268,9
1,046	71,7	344,2
1,0465	95,8	416,9
1,047	118,7	481,4
1,0475	138,3	528,4
1,048	152,5	550,6
1,0485	160,1	546,8
1,049	161,1	521,0
1,0495	156,6	477,9
1,05	146,6	418,5
1,0505	130,8	341,3
1,051	108,8	246,8
1,0515	81,2	141,2
1,052	50,1	33,0
1,0525	17,7	-70,8
1,053	-14,1	-167,8
1,0535	-44,1	-258,5
1,054	-72,3	-343,2
1,0545	-99,4	-421,0
1,055	-125,4	-489,6
1,0555	-148,7	-543,9
1,056	-166,1	-577,8
1,0565	-174,9	-586,8
1,057	-174,9	-571,6
1,0575	-168,3	-537,6
1,058	-158,1	-488,6
1,0585	-145,1	-424,4
1,059	-128,0	-343,1
1,0595	-105,1	-246,2
1,06	-76,2	-140,6
1,0605	-42,4	-35,1
1,061	-5,5	63,6
1,0615	32,3	153,3
1,062	69,0	236,3
1,0625	103,1	315,7
1,063	133,9	392,7
1,0635	160,8	462,8
1,064	182,5	517,4
1,0645	197,6	547,9
1,065	205,1	551,5
1,0655	205,5	531,5
1,066	200,3	493,5
1,0665	190,5	439,8
1,067	175,3	369,0
1,0675	153,5	279,9
1,068	125,4	176,4
1,0685	93,0	67,1
1,069	58,3	-39,8
1,0695	23,1	-139,9
1,07	-11,6	-233,4
1,0705	-45,1	-320,7
1,071	-76,7	-401,1
1,0715	-106,0	-472,8
1,072	-132,4	-531,4
1,0725	-155,1	-571,1
1,073	-173,2	-586,8
1,0735	-185,6	-578,0
1,074	-191,4	-549,5
1,0745	-190,0	-506,0
1,075	-180,7	-448,3
1,0755	-163,4	-373,5
1,076	-138,2	-280,9
1,0765	-106,4	-175,7
1,077	-70,5	-67,1
1,0775	-33,6	36,3
1,078	1,9	130,4
1,0785	35,0	215,9
1,079	65,7	296,5
1,0795	95,0	374,7
1,08	122,9	448,3
1,0805	147,8	509,7
1,081	167,4	549,3
1,0815	179,9	562,3
1,082	185,0	550,3
1,0825	184,1	518,5
1,083	178,2	470,5
1,0835	167,2	405,6
1,084	149,6	321,6
1,0845	125,2	220,7
1,085	95,3	110,3
1,0855	62,2	-0,1
1,086	26,8	-104,0
1,0865	-10,8	-200,0
1,087	-50,0	-289,2
1,0875	-88,4	-372,3
1,088	-123,1	-447,7
1,0885	-151,6	-512,0
1,089	-172,2	-559,5
1,0895	-184,2	-584,0
1,09	-187,3	-582,8
1,0905	-182,7	-559,1
1,091	-172,0	-517,8
1,0915	-156,5	-461,7
1,092	-136,0	-389,3
1,0925	-109,9	-299,6
1,093	-78,4	-195,9
1,0935	-43,4	-86,7
1,094	-7,3	19,0
1,0945	27,6	115,7
1,095	59,7	202,7
1,0955	88,6	283,2
1,096	114,7	360,7
1,0965	137,8	435,0
1,097	157,3	500,1
1,0975	171,8	546,3
1,098	179,8	566,8
1,0985	181,0	560,9
1,099	175,8	532,9
1,0995	164,2	487,2
1,1	144,0	424,5
1,1005	110,7	343,9
1,101	61,5	247,2
1,1015	-0,0	140,6
1,102	-64,1	32,3
1,1025	-120,0	-71,5
1,103	-161,8	-169,1
1,1035	-188,2	-261,0
1,104	-201,2	-347,4
1,1045	-203,0	-426,4
1,105	-195,8	-495,0
1,1055	-181,2	-548,2
1,106	-161,2	-579,8
1,1065	-137,7	-585,8
1,107	-113,1	-568,3
1,1075	-90,1	-532,9
1,108	-71,1	-483,8
1,1085	-58,5	-420,6
1,109	-52,5	-341,1
1,1095	-50,0	-245,8
1,11	-46,3	-141,0
1,1105	-37,2	-35,3
1,111	-21,7	64,2
1,1115	-0,3	154,7
1,112	25,6	238,3
1,1125	54,6	318,9
1,113	84,7	397,8
1,1135	113,4	470,9
1,114	139,0	528,7
1,1145	160,4	562,2
1,115	176,5	568,0
1,1155	185,9	549,2
1,116	187,8	511,3
1,1165	181,8	457,3
1,117	168,3	386,1
1,1175	147,4	297,3
1,118	119,8	194,4
1,1185	87,5	85,0
1,119	53,4	-22,7
1,1195	19,6	-124,5
1,12	-12,6	-219,7
1,1205	-42,7	-309,2
1,121	-70,5	-392,7
1,1215	-96,1	-468,1
1,122	-119,0	-530,8
1,1225	-137,7	-573,5
1,123	-149,7	-590,9
1,1235	-153,5	-582,9
1,124	-149,8	-555,0
1,1245	-140,6	-512,8
1,125	-127,4	-456,5
1,1255	-109,7	-383,0
1,126	-86,7	-290,9
1,1265	-58,7	-185,3
1,127	-28,4	-75,7
1,1275	1,2	28,9
1,128	28,3	123,8
1,1285	52,9	209,6
1,129	76,2	290,2
1,1295	99,1	368,2
1,13	121,6	441,5
1,1305	142,0	502,4
1,131	157,9	541,6
1,1315	167,3	554,1
1,132	169,5	541,6
1,1325	164,7	509,7
1,133	152,2	462,2
1,1335	131,2	398,4
1,134	101,5	316,1
1,1345	65,1	217,1
1,135	25,8	109,1
1,1355	-12,4	1,2
1,136	-46,5	-100,5
1,1365	-75,4	-194,8
1,137	-99,4	-283,1
1,1375	-119,8	-365,7
1,138	-136,9	-441,1
1,1385	-150,7	-505,8
1,139	-160,2	-553,4
1,1395	-165,0	-577,4
1,14	-165,6	-575,0
1,1405	-163,7	-549,4
1,141	-160,7	-506,7
1,1415	-155,5	-449,7
1,142	-144,9	-376,8
1,1425	-126,7	-286,9
1,143	-100,5	-183,3
1,1435	-68,9	-74,1
1,144	-35,2	31,7
1,1445	-2,0	128,7
1,145	29,9	216,2
1,1455	61,0	296,9
1,146	92,0	373,7
1,1465	123,0	446,3
1,147	152,6	509,1
1,1475	178,2	553,2
1,148	196,5	571,5
1,1485	205,2	562,6
1,149	204,2	530,8
1,1495	195,4	481,4
1,15	180,6	416,2
1,1505	160,2	334,0
1,151	133,9	235,7
1,1515	102,5	127,2
1,152	68,1	17,6
1,1525	32,9	-86,3
1,153	-2,3	-182,0
1,1535	-37,6	-270,7
1,154	-72,6	-353,3
1,1545	-105,3	-429,3
1,155	-133,7	-496,4
1,1555	-156,3	-549,9
1,156	-171,7	-583,1
1,1565	-178,8	-591,4
1,157	-177,6	-575,6
1,1575	-169,8	-540,8
1,158	-157,5	-490,9
1,1585	-141,5	-425,5
1,159	-121,5	-342,8
1,1595	-96,7	-244,4
1,16	-67,4	-137,3
1,1605	-35,6	-30,7
1,161	-3,4	69,0
1,1615	27,4	159,5
1,162	56,1	243,1
1,1625	83,4	323,3
1,163	110,0	401,0
1,1635	135,6	472,2
1,164	158,5	528,0
1,1645	176,5	560,4
1,165	187,5	566,2
1,1655	190,7	548,1
1,166	186,2	511,4
1,1665	174,4	458,3
1,167	155,8	387,3
1,1675	130,8	297,0
1,168	101,0	191,5
1,1685	68,4	79,4
1,169	35,5	-29,9
1,1695	3,7	-131,4
1,17	-26,6	-224,7
1,1705	-55,3	-311,0
1,171	-82,5	-391,1
1,1715	-108,0	-464,3
1,172	-131,1	-526,8
1,1725	-150,1	-571,9
1,173	-163,0	-592,5
1,1735	-168,2	-586,2
1,174	-165,4	-557,2
1,1745	-155,5	-511,1
1,175	-139,3	-449,7
1,1755	-117,7	-371,5
1,176	-91,4	-276,5
1,1765	-62,0	-169,8
1,177	-31,3	-60,8
1,1775	-1,1	42,1
1,178	27,8	135,1
1,1785	56,1	219,5
1,179	84,9	299,5
1,1795	113,9	377,7
1,18	141,0	451,8
1,1805	162,9	513,6
1,181	177,1	553,7
1,1815	182,8	566,8
1,182	180,9	554,2
1,1825	173,7	521,4
1,183	162,6	472,5
1,1835	147,7	406,8
1,184	128,2	322,0
1,1845	103,4	219,8
1,185	74,5	107,8
1,1855	43,1	-3,8
1,186	10,9	-107,5
1,1865	-20,9	-201,9
1,187	-51,3	-288,8
1,1875	-79,6	-369,4
1,188	-105,6	-443,1
1,1885	-129,2	-506,8
1,189	-149,7	-554,7
1,1895	-165,7	-580,4
1,19	-175,3	-581,0
1,1905	-177,3	-559,0
1,191	-171,8	-519,8
1,1915	-159,9	-465,8
1,192	-142,8	-395,3
1,1925	-120,7	-307,0
1,193	-94,3	-204,5
1,1935	-66,1	-96,0
1,194	-38,8	9,5
1,1945	-14,1	106,4
1,195	8,4	194,1
1,1955	30,8	275,5
1,196	54,7	354,5
1,1965	80,8	431,0
1,197	108,0	499,4
1,1975	133,6	550,2
1,198	154,4	575,4
1,1985	167,7	573,3
1,199	170,7	548,0
1,1995	160,1	504,9
1,2	132,1	445,6
1,2005	86,2	367,8
1,201	27,4	270,7
1,2015	-34,8	159,2
1,202	-90,6	43,6
1,2025	-133,6	-66,9
1,203	-161,4	-167,9
1,2035	-175,6	-259,7
1,204	-179,1	-343,7
1,2045	-175,1	-420,0
1,205	-166,3	-487,2
1,2055	-154,7	-540,7
1,206	-141,3	-574,4
1,2065	-127,0	-583,7
1,207	-112,4	-569,3
1,2075	-98,2	-536,5
1,208	-84,6	-489,3
1,2085	-70,9	-427,2
1,209	-55,8	-347,6
1,2095	-37,9	-251,3
1,21	-16,1	-144,9
1,2105	9,9	-37,8
1,211	39,2	62,8
1,2115	69,3	154,2
1,212	97,2	238,6
1,2125	122,0	319,7
1,213	145,4	398,6
1,2135	169,4	471,1
1,214	193,4	527,9
1,2145	213,3	560,3
1,215	225,0	565,1
1,2155	226,7	545,5
1,216	219,8	507,2
1,2165	205,8	453,0
1,217	185,8	381,8
1,2175	159,8	292,3
1,218	128,8	188,1
1,2185	94,5	77,7
1,219	58,7	-30,3
1,2195	21,9	-130,6
1,22	-17,0	-223,2
1,2205	-59,8	-309,3
1,221	-105,3	-389,0
1,2215	-149,0	-460,8
1,222	-185,4	-520,7
1,2225	-211,1	-562,7
1,223	-225,9	-581,3
1,2235	-231,1	-575,0
1,224	-227,8	-547,8
1,2245	-216,2	-504,2
1,225	-196,0	-445,4
1,2255	-167,1	-368,9
1,226	-130,2	-274,4
1,2265	-87,4	-167,0
1,227	-41,8	-56,7
1,2275	3,1	48,0
1,228	44,6	142,7
1,2285	81,1	228,2
1,229	112,7	308,1
1,2295	140,0	385,5
1,23	163,3	458,6
1,2305	182,3	520,0
1,231	196,2	560,5
1,2315	203,9	574,8
1,232	204,7	563,8
1,2325	198,6	532,8
1,233	186,0	485,6
1,2335	166,7	422,0
1,234	140,3	340,0
1,2345	107,6	240,5
1,235	71,5	129,4
1,2355	35,0	15,6
1,236	0,4	-93,8
1,2365	-31,5	-195,5
1,237	-60,5	-289,3
1,2375	-86,9	-375,3
1,238	-111,2	-452,8
1,2385	-133,7	-518,7
1,239	-153,2	-567,5
1,2395	-167,7	-592,9
1,24	-175,0	-592,8
1,2405	-174,6	-570,2
1,241	-167,5	-530,7
1,2415	-155,3	-476,6
1,242	-139,3	-406,3
1,2425	-120,7	-318,3
1,243	-100,5	-216,3
1,2435	-78,9	-108,4
1,244	-56,0	-3,7
1,2445	-32,5	92,4
1,245	-9,1	179,5
1,2455	14,2	260,7
1,246	38,1	339,6
1,2465	62,9	415,7
1,247	87,7	483,2
1,2475	110,4	532,5
1,248	128,9	556,0
1,2485	141,7	552,8
1,249	148,6	527,5
1,2495	149,9	485,4
1,25	145,7	427,9
1,2505	135,0	352,8
1,251	117,8	259,9
1,2515	95,2	154,7
1,252	69,4	46,0
1,2525	42,3	-58,3
1,253	14,5	-155,2
1,2535	-13,1	-245,3
1,254	-39,7	-329,5
1,2545	-64,7	-407,3
1,255	-88,1	-476,4
1,2555	-109,8	-531,9
1,256	-129,1	-567,3
1,2565	-144,0	-578,1
1,257	-152,7	-565,0
1,2575	-154,1	-533,2
1,258	-148,2	-486,4
1,2585	-135,2	-424,3
1,259	-115,9	-344,5
1,2595	-91,5	-247,8
1,26	-63,6	-140,6
1,2605	-34,2	-32,3
1,261	-4,6	69,5
1,2615	24,5	162,1
1,262	53,1	247,2
1,2625	81,6	328,7
1,263	109,7	407,9
1,2635	136,6	481,2
1,264	160,1	539,5
1,2645	178,0	573,8
1,265	189,0	580,3
1,2655	193,0	562,1
1,266	190,9	524,7
1,2665	182,8	471,3
1,267	168,1	401,0
1,2675	147,1	312,3
1,268	121,0	208,0
1,2685	91,4	96,0
1,269	59,8	-14,0
1,2695	27,0	-116,4
1,27	-5,8	-210,6
1,2705	-37,7	-298,3
1,271	-68,1	-379,8
1,2715	-96,0	-453,3
1,272	-120,8	-514,4
1,2725	-141,0	-557,0
1,273	-155,1	-575,9
1,2735	-162,3	-570,4
1,274	-162,6	-544,9
1,2745	-156,9	-504,2
1,275	-145,5	-448,9
1,2755	-127,9	-376,2
1,276	-103,4	-284,9
1,2765	-71,9	-179,9
1,277	-35,8	-70,3
1,2775	0,8	34,2
1,278	34,1	127,8
1,2785	62,4	209,7
1,279	86,6	283,7
1,2795	108,2	354,5
1,28	128,6	423,0
1,2805	147,4	483,3
1,281	162,7	525,9
1,2815	172,6	544,1
1,282	175,8	537,2
1,2825	172,1	509,8
1,283	162,2	465,6
1,2835	146,5	404,5
1,284	125,1	324,4
1,2845	98,3	226,7
1,285	67,2	118,5
1,2855	33,8	9,3
1,286	0,4	-93,7
1,2865	-31,0	-188,3
1,287	-59,7	-275,6
1,2875	-85,3	-356,6
1,288	-107,9	-431,2
1,2885	-127,7	-496,5
1,289	-144,3	-546,9
1,2895	-156,6	-575,6
1,29	-162,7	-579,2
1,2905	-161,5	-559,7
1,291	-153,0	-522,3
1,2915	-138,6	-469,8
1,292	-119,4	-401,2
1,2925	-97,0	-314,5
1,293	-74,6	-212,7
1,2935	-57,3	-103,9
1,294	-48,7	2,5
1,2945	-46,8	100,4
1,295	-44,7	188,6
1,2955	-35,3	270,2
1,296	-15,2	349,1
1,2965	15,7	425,6
1,297	54,6	494,0
1,2975	96,3	544,4
1,298	134,1	568,8
1,2985	163,0	566,0
1,299	180,9	540,5
1,2995	188,3	497,9
1,3	185,2	439,9
1,3005	170,4	364,5
1,301	143,0	271,3
1,3015	104,8	165,2
1,302	60,6	55,0
1,3025	15,4	-51,1
1,303	-26,9	-149,3
1,3035	-64,8	-239,8
1,304	-98,6	-323,4
1,3045	-128,5	-399,8
1,305	-154,6	-467,1
1,3055	-176,5	-520,9
1,306	-192,7	-555,6
1,3065	-200,5	-566,8
1,307	-197,3	-555,0
1,3075	-182,8	-524,9
1,308	-159,8	-480,1
1,3085	-132,0	-419,8
1,309	-101,2	-341,4
1,3095	-68,0	-245,3
1,31	-32,9	-138,3
1,3105	1,9	-30,0
1,311	34,2	71,2
1,3115	62,6	161,8
1,312	87,6	243,1
1,3125	110,4	319,3
1,313	132,4	392,7
1,3135	154,1	460,6
1,314	173,9	515,3
1,3145	188,9	548,3
1,315	196,6	555,5
1,3155	195,7	539,0
1,316	186,3	503,6
1,3165	168,9	452,0
1,317	144,7	383,0
1,3175	115,1	295,3
1,318	82,4	192,3
1,3185	48,9	82,6
1,319	16,8	-24,9
1,3195	-13,0	-125,1
1,32	-40,7	-217,9
1,3205	-67,1	-304,5
1,321	-92,6	-384,8
1,3215	-117,9	-457,0
1,322	-144,5	-517,3
1,3225	-173,4	-559,6
1,323	-202,7	-578,4
1,3235	-227,3	-572,2
1,324	-242,2	-545,2
1,3245	-244,2	-502,4
1,325	-233,4	-444,9
1,3255	-210,8	-370,7
1,326	-178,2	-279,1
1,3265	-137,4	-174,9
1,327	-91,5	-67,7
1,3275	-44,1	33,2
1,328	2,0	123,5
1,3285	44,6	204,8
1,329	83,2	281,8
1,3295	117,9	357,7
1,33	149,0	431,1
1,3305	175,5	494,4
1,331	195,6	538,0
1,3315	207,4	555,5
1,332	210,5	547,3
1,3325	206,1	518,7
1,333	196,3	473,6
1,3335	182,2	412,0
1,334	163,4	332,0
1,3345	138,9	235,0
1,335	108,8	127,4
1,3355	74,9	18,6
1,336	40,7	-84,7
1,3365	8,6	-180,2
1,337	-20,9	-268,9
1,3375	-49,3	-351,6
1,338	-78,2	-427,3
1,3385	-108,7	-493,4
1,339	-139,6	-544,3
1,3395	-167,5	-573,5
1,34	-188,4	-577,5
1,3405	-200,0	-558,4
1,341	-202,8	-521,4
1,3415	-198,2	-469,8
1,342	-186,9	-402,3
1,3425	-168,3	-317,2
1,343	-142,3	-216,8
1,3435	-110,3	-108,8
1,344	-75,2	-2,6
1,3445	-40,1	95,5
1,345	-6,4	183,7
1,3455	25,7	264,9
1,346	57,2	343,0
1,3465	88,3	418,4
1,347	118,3	486,0
1,3475	145,0	536,7
1,348	165,7	562,7
1,3485	177,9	562,3
1,349	181,5	539,4
1,3495	178,2	499,3
1,35	169,5	443,0
1,3505	156,0	368,9
1,351	136,8	277,0
1,3515	111,6	172,7
1,352	81,6	65,0
1,3525	49,2	-38,5
1,353	16,3	-134,8
1,3535	-15,6	-224,6
1,354	-45,4	-308,9
1,3545	-72,1	-387,1
1,355	-94,9	-456,7
1,3555	-112,3	-512,6
1,356	-123,2	-548,3
1,3565	-127,6	-559,7
1,357	-126,8	-547,9
1,3575	-122,6	-518,2
1,358	-115,7	-474,5
1,3585	-105,4	-416,8
1,359	-90,2	-342,3
1,3595	-69,0	-251,1
1,36	-42,1	-149,0
1,3605	-12,1	-45,1
1,361	18,1	53,0
1,3615	46,6	142,7
1,362	72,9	225,7
1,3625	97,6	305,2
1,363	121,5	382,2
1,3635	144,4	453,5
1,364	164,5	511,0
1,3645	179,3	546,2
1,365	186,9	554,9
1,3655	186,7	539,8
1,366	179,8	506,1
1,3665	167,3	456,5
1,367	150,0	389,8
1,3675	127,7	304,6
1,368	100,3	203,7
1,3685	68,8	95,5
1,369	35,2	-10,5
1,3695	1,4	-109,4
1,37	-31,4	-201,7
1,3705	-62,3	-289,4
1,371	-90,7	-372,3
1,3715	-116,1	-447,8
1,372	-138,3	-510,8
1,3725	-156,4	-555,0
1,373	-169,5	-574,8
1,3735	-176,5	-569,0
1,374	-177,0	-541,8
1,3745	-171,3	-498,7
1,375	-159,9	-441,3
1,3755	-142,6	-367,6
1,376	-119,2	-277,0
1,3765	-90,3	-173,6
1,377	-57,8	-66,4
1,3775	-24,2	36,0
1,378	7,8	129,0
1,3785	36,9	212,4
1,379	63,0	289,7
1,3795	87,3	363,9
1,38	110,4	434,5
1,3805	132,2	495,4
1,381	151,3	538,1
1,3815	166,5	556,6
1,382	176,9	550,7
1,3825	181,5	524,5
1,383	179,1	481,3
1,3835	167,9	420,5
1,384	147,3	340,4
1,3845	118,7	242,5
1,385	85,1	134,0
1,3855	50,2	24,5
1,386	17,0	-79,1
1,3865	-13,3	-174,9
1,387	-40,6	-263,9
1,3875	-65,3	-346,8
1,388	-88,1	-422,6
1,3885	-109,1	-488,7
1,389	-129,5	-539,6
1,3895	-151,9	-568,9
1,39	-177,8	-573,1
1,3905	-205,0	-554,4
1,391	-227,0	-518,3
1,3915	-236,9	-467,4
1,392	-230,6	-400,6
1,3925	-207,6	-315,7
1,393	-169,8	-215,0
1,3935	-121,1	-106,5
1,394	-66,6	0,2
1,3945	-10,8	98,5
1,395	42,8	186,6
1,3955	92,0	267,3
1,396	135,7	344,0
1,3965	173,1	417,5
1,397	203,3	482,9
1,3975	224,4	531,6
1,398	234,5	556,2
1,3985	232,8	555,0
1,399	220,9	531,8
1,3995	201,0	491,3
1,4	175,5	434,9
1,4005	145,4	361,0
1,401	111,1	269,4
1,4015	72,7	164,9
1,402	29,9	56,2
1,4025	-16,9	-48,5
1,403	-66,1	-145,7
1,4035	-114,9	-235,9
1,404	-160,9	-320,4
1,4045	-201,9	-398,6
1,405	-236,0	-468,0
1,4055	-260,9	-523,9
1,406	-275,1	-560,3
1,4065	-277,4	-572,9
1,407	-268,5	-562,3
1,4075	-250,1	-533,3
1,408	-224,7	-489,6
1,4085	-193,9	-430,2
1,409	-158,4	-352,2
1,4095	-118,1	-255,9
1,41	-74,2	-147,9
1,4105	-29,2	-38,4
1,411	14,1	64,0
1,4115	53,1	156,0
1,412	86,8	239,2
1,4125	115,2	318,0
1,413	139,4	394,7
1,4135	160,8	466,3
1,414	179,9	524,4
1,4145	195,6	559,8
1,415	205,9	568,4
1,4155	209,2	552,4
1,416	204,8	517,1
1,4165	192,5	465,3
1,417	172,7	396,3
1,4175	146,7	308,7
1,418	115,4	205,6
1,4185	79,3	95,3
1,419	39,5	-12,8
1,4195	-1,2	-113,2
1,42	-39,1	-205,7
1,4205	-72,0	-292,1
1,421	-99,5	-372,9
1,4215	-121,9	-446,4
1,422	-139,5	-508,4
1,4225	-151,8	-552,1
1,423	-157,7	-571,7
1,4235	-156,3	-565,5
1,424	-148,1	-538,2
1,4245	-134,7	-495,0
1,425	-117,3	-437,7
1,4255	-95,9	-364,0
1,426	-69,7	-272,9
1,4265	-38,9	-168,6
1,427	-5,8	-59,9
1,4275	26,5	44,0
1,428	55,4	137,6
1,4285	80,3	220,8
1,429	102,2	297,2
1,4295	122,4	370,9
1,43	141,3	441,8
1,4305	158,0	503,3
1,431	169,6	545,7
1,4315	172,4	562,2
1,432	164,4	552,5
1,4325	146,9	521,6
1,433	124,0	474,5
1,4335	99,1	412,1
1,434	73,3	332,8
1,4345	46,2	237,1
1,435	18,0	130,8
1,4355	-9,5	22,5
1,436	-34,2	-81,1
1,4365	-54,9	-177,5
1,437	-72,2	-267,3
1,4375	-87,3	-350,6
1,438	-101,5	-426,1
1,4385	-115,6	-491,3
1,439	-128,8	-541,0
1,4395	-139,2	-569,5
1,44	-145,2	-573,3
1,4405	-145,7	-554,3
1,441	-140,9	-517,5
1,4415	-131,1	-465,9
1,442	-115,8	-398,3
1,4425	-94,1	-312,5
1,443	-65,3	-210,8
1,4435	-31,1	-100,8
1,444	4,7	7,3
1,4445	37,8	106,8
1,445	66,4	195,9
1,4455	90,8	277,6
1,446	113,1	355,7
1,4465	134,8	431,0
1,447	156,3	498,7
1,4475	176,0	549,5
1,448	190,8	575,4
1,4485	198,4	574,4
1,449	198,0	550,5
1,4495	190,4	509,3
1,45	176,5	452,6
1,4505	156,9	378,8
1,451	131,9	286,8
1,4515	102,3	180,2
1,452	69,9	67,8
1,4525	37,0	-41,4
1,453	5,0	-141,8
1,4535	-25,6	-233,1
1,454	-54,4	-316,4
1,4545	-81,2	-392,6
1,455	-105,4	-460,7
1,4555	-126,5	-517,2
1,456	-143,4	-556,3
1,4565	-154,6	-572,9
1,457	-159,3	-565,4
1,4575	-157,6	-537,2
1,458	-150,5	-491,9
1,4585	-138,7	-430,2
1,459	-122,0	-350,3
1,4595	-99,6	-253,2
1,46	-71,9	-145,2
1,4605	-40,6	-36,0
1,461	-8,0	66,4
1,4615	23,8	158,7
1,462	53,7	242,1
1,4625	81,3	320,5
1,463	106,8	396,3
1,4635	130,5	467,1
1,464	151,1	524,7
1,4645	166,7	559,7
1,465	175,2	567,2
1,4655	175,9	549,5
1,466	169,6	512,3
1,4665	157,9	459,7
1,467	142,3	391,5
1,4675	123,2	306,3
1,468	99,8	206,3
1,4685	72,4	98,8
1,469	42,4	-7,7
1,4695	12,0	-107,7
1,47	-17,5	-200,6
1,4705	-45,7	-287,7
1,471	-72,9	-369,4
1,4715	-98,7	-444,1
1,472	-122,2	-507,6
1,4725	-141,9	-553,5
1,473	-156,0	-575,9
1,4735	-163,3	-573,3
1,474	-163,9	-549,4
1,4745	-158,8	-509,1
1,475	-148,5	-453,8
1,4755	-132,7	-381,3
1,476	-110,5	-290,3
1,4765	-82,1	-185,3
1,477	-49,7	-75,6
1,4775	-16,2	29,6
1,478	15,3	125,1
1,4785	43,2	211,1
1,479	67,3	291,2
1,4795	89,7	368,5
1,48	112,1	442,3
1,4805	134,5	506,1
1,481	154,5	550,8
1,4815	168,3	570,1
1,482	173,8	563,5
1,4825	171,1	535,9
1,483	162,1	491,5
1,4835	148,1	431,0
1,484	129,4	352,6
1,4845	105,8	256,9
1,485	77,9	150,3
1,4855	47,3	41,7
1,486	16,2	-61,7
1,4865	-13,9	-157,6
1,487	-42,4	-246,9
1,4875	-69,3	-330,4
1,488	-94,0	-407,1
1,4885	-116,2	-474,3
1,489	-135,4	-527,3
1,4895	-150,6	-560,0
1,49	-161,4	-569,0
1,4905	-170,3	-556,1
1,491	-181,9	-526,1
1,4915	-197,8	-481,4
1,492	-213,2	-419,9
1,4925	-219,8	-338,8
1,493	-212,5	-239,6
1,4935	-190,7	-130,0
1,494	-156,8	-20,0
1,4945	-113,4	83,0
1,495	-63,1	176,4
1,4955	-8,8	262,2
1,496	45,9	343,9
1,4965	97,2	422,2
1,497	141,7	492,4
1,4975	177,0	545,5
1,498	202,2	572,8
1,4985	216,5	572,1
1,499	220,2	547,6
1,4995	214,6	505,0
1,5	201,1	447,0
1,5005	181,0	372,3
1,501	155,0	280,1
1,5015	124,1	174,7
1,502	89,9	64,7
1,5025	54,3	-41,5
1,503	18,1	-140,2
1,5035	-17,9	-232,2
1,504	-52,1	-318,9
1,5045	-81,8	-400,1
1,505	-105,5	-473,1
1,5055	-123,0	-532,7
1,506	-135,3	-571,9
1,5065	-142,9	-585,7
1,507	-145,5	-574,4
1,5075	-143,1	-543,4
1,508	-135,6	-497,1
1,5085	-123,1	-435,9
1,509	-105,3	-357,3
1,5095	-82,5	-261,6
1,51	-56,6	-154,8
1,5105	-30,5	-46,1
1,511	-6,6	56,3
1,5115	14,3	148,8
1,512	33,3	232,5
1,5125	52,4	311,2
1,513	73,3	387,3
1,5135	96,1	458,8
1,514	118,3	517,7
1,5145	136,2	554,9
1,515	145,8	565,8
1,5155	145,7	552,0
1,516	137,5	518,7
1,5165	124,3	468,8
1,517	107,9	402,0
1,5175	88,3	316,5
1,518	64,8	215,5
1,5185	37,9	106,9
1,519	9,6	0,1
1,5195	-18,1	-99,2
1,52	-43,7	-190,5
1,5205	-67,4	-275,3
1,521	-89,6	-354,7
1,5215	-110,8	-427,5
1,522	-130,7	-490,2
1,5225	-147,8	-536,7
1,523	-160,0	-561,1
1,5235	-165,0	-561,1
1,524	-162,0	-539,5
1,5245	-152,3	-500,7
1,525	-137,8	-445,9
1,5255	-119,6	-373,5
1,526	-97,5	-282,9
1,5265	-70,7	-178,5
1,527	-39,2	-69,0
1,5275	-4,3	36,5
1,528	31,6	132,6
1,5285	65,9	218,6
1,529	96,1	297,9
1,5295	120,5	373,6
1,53	137,5	444,9
1,5305	146,3	505,3
1,531	147,5	546,2
1,5315	143,4	561,7
1,532	135,8	552,0
1,5325	125,3	522,1
1,533	112,0	477,0
1,5335	96,8	417,5
1,534	80,8	341,1
1,5345	64,6	247,5
1,535	47,8	141,7
1,5355	29,2	32,6
1,536	8,0	-72,8
1,5365	-15,6	-171,7
1,537	-40,3	-263,9
1,5375	-64,4	-348,8
1,538	-87,3	-425,2
1,5385	-108,4	-491,1
1,539	-126,4	-542,2
1,5395	-139,5	-572,9
1,54	-145,5	-579,4
1,5405	-144,2	-563,0
1,541	-136,8	-528,4
1,5415	-124,9	-478,6
1,542	-109,3	-412,4
1,5425	-89,7	-327,8
1,543	-65,4	-227,1
1,5435	-36,7	-117,8
1,544	-4,5	-9,7
1,5445	29,3	90,4
1,545	62,3	180,2
1,5455	92,5	262,2
1,546	119,2	339,9
1,5465	142,5	414,8
1,547	162,5	482,6
1,5475	178,8	534,6
1,548	190,4	562,7
1,5485	196,5	564,3
1,549	196,8	543,1
1,5495	191,2	504,4
1,55	179,6	450,2
1,5505	161,6	378,5
1,551	136,9	288,3
1,5515	106,7	184,1
1,552	73,3	74,9
1,5525	39,8	-30,6
1,553	7,9	-128,6
1,5535	-21,9	-219,9
1,554	-49,9	-306,1
1,5545	-76,1	-386,9
1,555	-100,5	-459,5
1,5555	-122,3	-518,8
1,556	-140,2	-557,9
1,5565	-152,8	-571,8
1,557	-159,5	-561,0
1,5575	-160,5	-530,6
1,558	-156,7	-485,5
1,5585	-148,7	-426,0
1,559	-135,7	-349,3
1,5595	-116,6	-255,3
1,56	-91,5	-149,7
1,5605	-62,1	-41,7
1,561	-30,7	60,5
1,5615	0,5	153,1
1,562	30,6	237,3
1,5625	59,5	316,4
1,563	87,3	393,0
1,5635	113,9	464,8
1,564	138,0	523,9
1,5645	157,4	561,8
1,565	169,9	573,8
1,5655	174,2	561,7
1,566	171,0	530,5
1,5665	161,8	483,4
1,567	148,0	420,0
1,5675	129,6	338,5
1,568	106,4	240,9
1,5685	79,1	134,5
1,569	49,4	28,3
1,5695	19,3	-71,9
1,57	-10,4	-165,3
1,5705	-39,6	-253,2
1,571	-68,0	-336,4
1,5715	-94,8	-413,5
1,572	-118,4	-480,6
1,5725	-137,1	-531,3
1,573	-149,0	-558,7
1,5735	-153,4	-560,2
1,574	-151,0	-538,9
1,5745	-143,4	-500,6
1,575	-131,3	-447,8
1,5755	-114,3	-379,2
1,576	-91,3	-293,5
1,5765	-62,6	-194,1
1,577	-30,4	-89,0
1,5775	2,4	13,3
1,578	33,4	107,4
1,5785	61,7	193,1
1,579	87,6	273,3
1,5795	111,9	350,8
1,58	134,9	424,9
1,5805	155,5	489,5
1,581	171,7	535,5
1,5815	181,9	556,2
1,582	185,5	551,4
1,5825	182,1	525,8
1,583	171,3	483,5
1,5835	153,1	425,0
1,584	128,2	348,1
1,5845	98,5	253,4
1,585	65,8	146,7
1,5855	32,0	37,0
1,586	-1,2	-68,2
1,5865	-33,8	-166,3
1,587	-69,3	-257,3
1,5875	-111,6	-341,5
1,588	-160,3	-418,3
1,5885	-208,6	-485,3
1,589	-247,9	-537,7
1,5895	-273,1	-569,3
1,59	-282,9	-576,0
1,5905	-278,0	-559,0
1,591	-259,7	-523,8
1,5915	-229,8	-474,0
1,592	-190,2	-409,0
1,5925	-143,3	-326,3
1,593	-91,8	-227,3
1,5935	-39,4	-118,8
1,594	10,5	-10,2
1,5945	55,1	91,6
1,595	92,5	183,8
1,5955	122,4	268,3
1,596	145,8	348,7
1,5965	164,7	426,2
1,597	180,5	496,6
1,5975	193,1	550,8
1,598	201,3	580,3
1,5985	203,6	582,4
1,599	199,2	560,8
1,5995	187,6	521,6
1,6	169,1	467,7
1,6005	144,7	397,4
1,601	116,2	309,1
1,6015	85,6	206,2
1,602	54,7	97,0
1,6025	24,6	-9,5
1,603	-4,6	-109,2
1,6035	-33,0	-202,7
1,604	-60,4	-291,3
1,6045	-86,5	-374,7
1,605	-110,7	-450,4
1,6055	-131,8	-513,3
1,606	-148,9	-556,9
1,6065	-161,3	-576,3
1,607	-168,6	-571,0
1,6075	-171,4	-544,9
1,608	-170,8	-501,9
1,6085	-166,3	-442,1
1,609	-155,8	-363,1
1,6095	-136,9	-265,8
1,61	-109,8	-156,4
1,6105	-76,4	-45,1
1,611	-40,5	59,7
1,6115	-5,0	153,9
1,612	28,6	238,7
1,6125	60,4	317,2
1,613	91,0	391,3
1,6135	120,7	459,2
1,614	147,8	514,4
1,6145	170,2	549,5
1,615	185,7	560,4
1,6155	193,5	548,3
1,616	194,3	517,3
1,6165	188,8	469,4
1,617	177,1	403,6
1,6175	158,1	318,4
1,618	131,2	216,8
1,6185	97,6	107,1
1,619	60,5	-1,0
1,6195	23,3	-101,5
1,62	-12,3	-194,0
1,6205	-45,9	-280,7
1,621	-77,5	-362,3
1,6215	-106,5	-437,4
1,622	-131,6	-502,4
1,6225	-151,2	-551,2
1,623	-163,2	-577,1
1,6235	-166,7	-577,2
1,624	-162,4	-554,5
1,6245	-152,7	-514,6
1,625	-139,8	-459,9
1,6255	-124,0	-389,1
1,626	-104,0	-300,7
1,6265	-78,9	-198,1
1,627	-49,4	-89,4
1,6275	-17,4	16,2
1,628	14,8	113,2
1,6285	45,9	201,1
1,629	75,2	282,9
1,6295	102,3	361,9
1,63	126,4	437,3
1,6305	146,8	503,0
1,631	163,0	549,7
1,6315	174,4	570,7
1,632	180,5	565,6
1,6325	180,7	539,1
1,633	174,7	496,2
1,6335	162,9	437,5
1,634	145,9	360,8
1,6345	123,8	266,2
1,635	96,7	159,1
1,6355	65,3	48,6
1,636	31,8	-57,3
1,6365	-1,2	-155,3
1,637	-32,7	-246,0
1,6375	-63,7	-330,1
1,638	-94,7	-407,1
1,6385	-125,2	-474,6
1,639	-152,6	-527,8
1,6395	-174,8	-560,4
1,64	-191,9	-568,1
1,6405	-205,4	-552,1
1,641	-215,3	-517,8
1,6415	-219,1	-468,6
1,642	-213,4	-403,9
1,6425	-196,2	-321,4
1,643	-167,7	-222,7
1,6435	-131,0	-115,0
1,644	-90,3	-7,8
1,6445	-49,6	91,6
1,645	-10,4	180,9
1,6455	27,3	262,3
1,646	64,5	339,6
1,6465	101,0	414,5
1,647	135,3	483,0
1,6475	164,7	536,2
1,648	186,2	565,4
1,6485	198,7	567,9
1,649	203,0	547,1
1,6495	200,7	508,6
1,65	192,5	454,8
1,6505	178,2	384,1
1,651	157,6	295,3
1,6515	131,8	192,4
1,652	102,3	83,8
1,6525	71,0	-22,3
1,653	39,2	-121,6
1,6535	8,1	-214,0
1,654	-21,7	-300,5
1,6545	-50,0	-380,5
1,655	-76,2	-451,6
1,6555	-99,4	-509,8
1,656	-118,6	-549,2
1,6565	-133,0	-564,9
1,657	-141,6	-556,5
1,6575	-143,5	-528,7
1,658	-138,0	-486,1
1,6585	-124,8	-429,7
1,659	-104,3	-356,8
1,6595	-77,8	-266,4
1,66	-47,2	-163,2
1,6605	-14,5	-56,2
1,661	17,8	46,0
1,6615	47,9	139,0
1,662	75,2	222,9
1,6625	100,0	301,3
1,663	123,4	377,0
1,6635	145,6	448,2
1,664	165,3	507,5
1,6645	180,3	545,8
1,665	188,6	558,0
1,6655	189,9	545,5
1,666	184,8	513,8
1,6665	174,2	466,5
1,667	158,4	402,8
1,6675	136,9	320,5
1,668	108,8	221,4
1,6685	74,3	113,1
1,669	35,0	4,7
1,6695	-5,8	-97,8
1,67	-44,5	-193,0
1,6705	-79,4	-281,7
1,671	-110,0	-363,8
1,6715	-136,1	-437,9
1,672	-157,4	-500,9
1,6725	-173,1	-547,4
1,673	-181,8	-571,3
1,6735	-182,9	-570,4
1,674	-177,3	-547,7
1,6745	-166,5	-508,6
1,675	-151,4	-455,3
1,6755	-132,0	-385,9
1,676	-107,6	-298,6
1,6765	-78,0	-196,2
1,677	-44,3	-86,8
1,6775	-8,8	20,3
1,678	26,2	119,3
1,6785	58,7	208,9
1,679	88,2	292,4
1,6795	114,9	372,7
1,68	138,9	449,4
1,6805	158,3	516,1
1,681	169,0	563,3
1,6815	166,1	583,8
1,682	146,4	577,2
1,6825	112,6	548,3
1,683	72,8	502,8
1,6835	36,3	442,1
1,684	8,0	364,3
1,6845	-12,3	269,0
1,685	-26,3	161,4
1,6855	-35,3	50,5
1,686	-40,1	-56,0
1,6865	-41,7	-155,6
1,687	-42,4	-248,5
1,6875	-44,3	-335,1
1,688	-48,9	-413,8
1,6885	-56,8	-482,0
1,689	-66,9	-534,9
1,6895	-77,5	-566,7
1,69	-86,5	-573,4
1,6905	-92,6	-556,8
1,691	-95,4	-522,3
1,6915	-94,9	-474,3
1,692	-90,7	-412,8
1,6925	-81,4	-335,5
1,693	-66,1	-242,4
1,6935	-45,6	-138,6
1,694	-22,4	-32,3
1,6945	1,4	68,8
1,695	25,5	161,4
1,6955	51,1	246,9
1,696	78,9	328,6
1,6965	107,4	407,5
1,697	133,3	479,4
1,6975	153,0	535,2
1,698	163,8	566,3
1,6985	165,3	570,3
1,699	158,7	550,7
1,6995	145,9	513,3
1,7	128,2	460,7
1,7005	105,0	391,2
1,701	74,8	303,4
1,7015	38,1	200,9
1,702	-1,9	92,5
1,7025	-40,9	-13,1
1,703	-75,5	-111,4
1,7035	-104,9	-202,8
1,704	-129,6	-288,6
1,7045	-150,3	-369,2
1,705	-167,6	-443,2
1,7055	-181,2	-506,2
1,706	-190,0	-551,5
1,7065	-192,2	-572,8
1,707	-186,4	-568,8
1,7075	-172,0	-542,9
1,708	-149,8	-499,2
1,7085	-121,0	-438,3
1,709	-87,3	-358,7
1,7095	-50,3	-261,4
1,71	-11,8	-152,6
1,7105	25,6	-41,7
1,711	59,0	62,9
1,7115	86,3	157,1
1,712	106,9	241,8
1,7125	122,5	320,9
1,713	136,1	397,3
1,7135	150,1	469,5
1,714	163,8	529,8
1,7145	174,5	568,9
1,715	179,4	580,9
1,7155	178,1	566,7
1,716	171,6	531,2
1,7165	161,1	478,3
1,717	146,8	408,3
1,7175	128,2	320,6
1,718	104,4	217,9
1,7185	75,4	108,2
1,719	42,2	0,4
1,7195	6,8	-100,2
1,72	-28,7	-193,0
1,7205	-62,8	-279,8
1,721	-94,8	-361,1
1,7215	-123,7	-435,6
1,722	-148,5	-499,9
1,7225	-167,6	-548,4
1,723	-179,4	-574,6
1,7235	-182,8	-575,5
1,724	-177,8	-553,7
1,7245	-165,5	-514,2
1,725	-147,5	-459,7
1,7255	-124,2	-388,8
1,726	-95,5	-299,8
1,7265	-62,0	-196,3
1,727	-26,0	-87,1
1,7275	8,9	18,2
1,728	40,3	113,6
1,7285	67,8	199,0
1,729	92,7	278,2
1,7295	116,7	354,9
1,73	140,6	429,0
1,7305	163,1	494,8
1,731	180,5	542,9
1,7315	188,4	566,1
1,732	184,6	562,9
1,7325	170,8	537,8
1,733	150,9	495,7
1,7335	128,2	437,5
1,734	103,1	361,3
1,7345	75,5	267,1
1,735	45,8	161,0
1,7355	15,8	52,6
1,736	-12,8	-50,2
1,7365	-39,0	-145,2
1,737	-62,7	-234,0
1,7375	-83,8	-317,9
1,738	-102,7	-395,9
1,7385	-119,3	-465,0
1,739	-133,3	-520,0
1,7395	-143,3	-554,4
1,74	-147,4	-563,8
1,7405	-145,1	-549,0
1,741	-137,4	-515,2
1,7415	-125,9	-466,4
1,742	-110,9	-402,3
1,7425	-92,3	-320,7
1,743	-71,4	-222,7
1,7435	-50,8	-115,2
1,744	-32,6	-7,9
1,7445	-15,8	91,6
1,745	2,7	181,0
1,7455	25,6	262,9
1,746	53,9	341,7
1,7465	86,3	418,8
1,747	119,7	489,9
1,7475	150,8	545,6
1,748	176,4	576,7
1,7485	194,5	579,8
1,749	204,5	558,3
1,7495	206,6	518,2
1,75	201,2	462,8
1,7505	188,2	391,3
1,751	167,8	302,4
1,7515	140,5	199,1
1,752	108,3	89,2
1,7525	73,6	-18,6
1,753	38,8	-119,1
1,7535	4,9	-212,0
1,754	-29,3	-298,8
1,7545	-64,7	-379,4
1,755	-100,4	-451,9
1,7555	-133,5	-512,1
1,756	-160,7	-553,7
1,7565	-179,2	-571,2
1,757	-187,2	-563,3
1,7575	-184,7	-534,5
1,758	-173,1	-489,8
1,7585	-154,5	-430,8
1,759	-130,8	-355,5
1,7595	-102,8	-263,5
1,76	-71,6	-159,7
1,7605	-38,5	-52,8
1,761	-5,1	49,2
1,7615	27,3	142,4
1,762	57,7	227,6
1,7625	86,1	308,0
1,763	112,5	386,0
1,7635	136,8	459,2
1,764	157,9	520,2
1,7645	174,3	559,7
1,765	184,1	572,4
1,7655	187,0	559,9
1,766	183,4	527,9
1,7665	174,3	480,2
1,767	159,5	416,4
1,7675	138,8	334,5
1,768	112,3	235,8
1,7685	81,3	127,5
1,769	48,2	18,5
1,7695	15,5	-84,4
1,77	-15,5	-179,8
1,7705	-44,5	-268,5
1,771	-71,4	-351,0
1,7715	-96,6	-426,3
1,772	-119,6	-491,2
1,7725	-139,2	-540,5
1,773	-153,6	-568,0
1,7735	-161,2	-570,3
1,774	-161,9	-549,6
1,7745	-156,4	-510,6
1,775	-145,6	-456,3
1,7755	-130,0	-385,6
1,776	-109,4	-297,3
1,7765	-83,8	-194,5
1,777	-54,1	-85,4
1,7775	-22,6	20,7
1,778	8,6	118,1
1,7785	38,2	206,2
1,779	66,2	288,3
1,7795	92,9	368,1
1,78	118,4	445,1
1,7805	141,7	513,0
1,781	161,0	562,1
1,7815	174,1	584,9
1,782	179,7	580,5
1,7825	177,6	553,4
1,783	169,0	508,5
1,7835	155,1	446,9
1,784	136,3	367,0
1,7845	112,3	269,9
1,785	82,2	162,1
1,7855	43,8	52,9
1,786	-5,1	-50,2
1,7865	-63,8	-145,0
1,787	-126,1	-232,8
1,7875	-182,6	-314,6
1,788	-225,7	-390,3
1,7885	-252,7	-458,1
1,789	-264,1	-513,5
1,7895	-261,4	-550,0
1,79	-246,3	-562,2
1,7905	-220,6	-550,0
1,791	-187,6	-517,8
1,7915	-150,6	-469,5
1,792	-112,0	-405,4
1,7925	-72,9	-323,8
1,793	-33,8	-226,4
1,7935	3,7	-120,2
1,794	36,8	-14,8
1,7945	64,0	82,7
1,795	85,3	170,6
1,7955	102,9	251,8
1,796	119,6	330,4
1,7965	136,7	407,7
1,797	153,8	479,2
1,7975	168,9	535,4
1,798	178,7	567,3
1,7985	180,7	572,1
1,799	176,0	553,5
1,7995	167,8	517,5
1,8	158,1	466,5
1,8005	146,3	398,7
1,801	129,6	311,8
1,8015	106,9	209,1
1,802	79,5	98,7
1,8025	49,7	-10,1
1,803	19,2	-111,9
1,8035	-11,3	-206,0
1,804	-41,4	-293,5
1,8045	-70,6	-374,8
1,805	-97,6	-448,8
1,8055	-121,2	-511,9
1,806	-139,8	-557,5
1,8065	-152,7	-578,8
1,807	-159,4	-573,6
1,8075	-160,3	-545,9
1,808	-155,9	-501,4
1,8085	-146,3	-441,9
1,809	-130,9	-365,6
1,8095	-109,6	-272,0
1,81	-83,5	-166,0
1,8105	-55,7	-56,6
1,811	-29,4	47,6
1,8115	-6,3	142,2
1,812	13,9	227,6
1,8125	33,4	307,7
1,813	54,3	385,2
1,8135	77,0	458,8
1,814	99,1	521,5
1,8145	116,2	563,7
1,815	125,2	579,3
1,8155	125,7	568,7
1,816	119,9	537,4
1,8165	110,0	490,1
1,817	96,6	427,0
1,8175	79,7	346,4
1,818	59,5	249,4
1,8185	37,3	142,7
1,819	14,7	35,4
1,8195	-7,4	-66,3
1,82	-29,2	-161,3
1,8205	-51,6	-251,3
1,821	-75,1	-336,9
1,8215	-99,0	-416,7
1,822	-122,1	-486,7
1,8225	-142,7	-540,0
1,823	-158,8	-569,3
1,8235	-168,2	-571,1
1,824	-169,4	-548,8
1,8245	-162,3	-508,8
1,825	-147,5	-454,4
1,8255	-125,6	-384,3
1,826	-97,3	-296,6
1,8265	-64,4	-194,6
1,827	-30,2	-87,1
1,8275	2,1	15,9
1,828	31,3	109,0
1,8285	58,1	192,6
1,829	84,0	271,3
1,8295	109,8	349,1
1,83	135,3	425,8
1,8305	159,3	494,9
1,831	179,4	546,5
1,8315	192,8	572,5
1,832	197,3	571,1
1,8325	192,4	545,8
1,833	178,4	501,2
1,8335	155,5	439,7
1,834	124,1	360,9
1,8345	86,3	265,9
1,835	45,5	160,2
1,8355	5,3	52,1
1,836	-34,2	-51,4
1,8365	-74,9	-147,5
1,837	-117,8	-237,2
1,8375	-159,9	-321,5
1,838	-196,0	-400,0
1,8385	-222,0	-470,5
1,839	-237,0	-528,3
1,8395	-241,6	-566,6
1,84	-236,3	-580,1
1,8405	-222,0	-568,6
1,841	-199,8	-536,4
1,8415	-171,6	-488,0
1,842	-138,8	-423,6
1,8425	-102,0	-341,5
1,843	-61,9	-242,9
1,8435	-19,3	-134,5
1,844	23,5	-25,8
1,8445	63,4	75,5
1,845	97,5	166,6
1,8455	125,1	249,6
1,846	147,8	328,8
1,8465	168,0	405,8
1,847	186,9	477,3
1,8475	203,9	534,4
1,848	216,7	568,6
1,8485	222,9	576,1
1,849	221,1	559,5
1,8495	211,8	524,1
1,85	196,5	472,3
1,8505	176,8	403,1
1,851	153,1	315,1
1,8515	125,6	211,5
1,852	94,9	100,5
1,8525	62,5	-8,8
1,853	29,8	-110,9
1,8535	-2,1	-204,9
1,854	-32,8	-291,7
1,8545	-61,8	-371,2
1,855	-88,6	-442,3
1,8555	-112,1	-501,8
1,856	-131,1	-544,3
1,8565	-144,4	-564,1
1,857	-151,2	-559,6
1,8575	-151,7	-534,1
1,858	-146,4	-492,4
1,8585	-136,0	-435,8
1,859	-119,9	-362,2
1,8595	-97,8	-270,8
1,86	-70,3	-165,9
1,8605	-39,4	-57,1
1,861	-7,9	45,6
1,8615	22,1	136,5
1,862	49,9	216,9
1,8625	76,2	292,1
1,863	101,6	366,9
1,8635	126,4	440,5
1,864	149,9	505,2
1,8645	170,6	550,6
1,865	186,5	569,8
1,8655	195,4	562,8
1,866	196,3	534,3
1,8665	188,8	488,3
1,867	173,5	425,3
1,8675	151,0	343,4
1,868	122,1	244,4
1,8685	88,8	135,3
1,869	53,9	25,7
1,8695	19,7	-77,5
1,87	-12,2	-172,7
1,8705	-41,8	-261,2
1,871	-69,4	-343,9
1,8715	-95,7	-419,8
1,872	-121,5	-485,7
1,8725	-146,5	-535,7
1,873	-168,6	-563,4
1,8735	-184,5	-565,5
1,874	-191,8	-544,7
1,8745	-190,4	-506,6
1,875	-181,3	-453,9
1,8755	-165,3	-385,5
1,876	-142,6	-299,3
1,8765	-115,3	-198,0
1,877	-88,6	-89,2
1,8775	-69,0	18,0
1,878	-59,0	117,1
1,8785	-54,1	206,5
1,879	-46,6	288,5
1,8795	-30,3	366,7
1,88	-3,4	441,9
1,8805	32,3	509,4
1,881	72,9	560,2
1,8815	113,7	586,5
1,882	150,6	586,4
1,8825	180,3	563,6
1,883	200,4	522,3
1,8835	209,2	464,2
1,884	205,7	387,8
1,8845	190,2	293,3
1,885	164,3	186,1
1,8855	130,8	74,9
1,886	92,5	-32,4
1,8865	52,1	-132,8
1,887	12,3	-226,7
1,8875	-25,2	-314,5
1,888	-59,3	-395,0
1,8885	-89,7	-465,3
1,889	-116,0	-520,4
1,8895	-137,6	-554,7
1,89	-153,2	-564,1
1,8905	-160,7	-550,1
1,891	-159,2	-517,8
1,8915	-149,1	-471,7
1,892	-132,3	-411,4
1,8925	-110,3	-334,3
1,893	-83,9	-240,7
1,8935	-53,4	-136,9
1,894	-20,3	-32,4
1,8945	13,0	65,3
1,895	44,2	153,8
1,8955	72,6	235,8
1,896	98,9	315,0
1,8965	124,0	392,9
1,897	147,8	465,4
1,8975	168,7	523,7
1,898	184,3	558,8
1,8985	192,8	566,9
1,899	193,7	550,7
1,8995	187,7	515,3
1,9	175,8	464,0
1,9005	158,6	395,7
1,901	135,4	309,2
1,9015	106,3	207,4
1,902	72,8	98,5
1,9025	37,2	-8,7
1,903	1,6	-108,8
1,9035	-32,4	-201,3
1,904	-64,3	-287,8
1,9045	-93,9	-368,4
1,905	-121,0	-441,6
1,9055	-144,7	-503,3
1,906	-163,7	-546,9
1,9065	-176,8	-566,5
1,907	-183,7	-560,7
1,9075	-184,8	-533,6
1,908	-181,1	-490,7
1,9085	-172,4	-433,6
1,909	-157,7	-360,2
1,9095	-135,8	-269,7
1,91	-107,1	-166,1
1,9105	-73,7	-58,2
1,911	-38,6	45,1
1,9115	-3,9	139,3
1,912	29,2	224,5
1,9125	60,6	304,4
1,913	90,2	381,9
1,9135	118,3	455,7
1,914	144,2	518,9
1,9145	166,4	562,4
1,915	183,1	580,2
1,9155	192,6	572,5
1,916	194,2	544,0
1,9165	187,8	498,5
1,917	173,2	436,0
1,9175	149,6	354,9
1,918	116,2	256,5
1,9185	74,9	147,3
1,919	29,8	36,5
1,9195	-14,2	-69,0
1,92	-53,7	-166,6
1,9205	-87,3	-257,3
1,921	-114,6	-341,5
1,9215	-136,5	-418,1
1,922	-154,1	-484,3
1,9225	-167,3	-534,8
1,923	-174,9	-563,4
1,9235	-175,4	-566,4
1,924	-168,3	-545,9
1,9245	-154,7	-507,1
1,925	-136,2	-453,5
1,9255	-114,0	-384,2
1,926	-88,5	-297,8
1,9265	-59,7	-196,8
1,927	-28,5	-88,6
1,9275	3,5	17,8
1,928	34,2	116,2
1,9285	62,7	205,1
1,929	89,1	287,3
1,9295	114,0	366,1
1,93	137,7	442,2
1,9305	159,0	510,3
1,931	175,6	560,5
1,9315	185,2	584,3
1,932	186,8	580,0
1,9325	181,4	552,4
1,933	170,7	507,9
1,9335	156,2	448,8
1,934	138,3	373,1
1,9345	116,3	279,8
1,935	89,5	173,5
1,9355	58,7	63,2
1,936	26,0	-42,8
1,9365	-6,1	-140,5
1,937	-36,5	-230,6
1,9375	-64,6	-314,4
1,938	-90,3	-391,3
1,9385	-112,9	-459,5
1,939	-131,5	-514,5
1,9395	-145,5	-550,2
1,94	-156,4	-561,3
1,9405	-167,1	-547,8
1,941	-179,2	-514,5
1,9415	-190,9	-465,9
1,942	-197,4	-402,5
1,9425	-194,0	-322,1
1,943	-178,8	-225,3
1,9435	-152,8	-118,4
1,944	-118,9	-10,6
1,9445	-80,8	90,5
1,945	-41,3	181,5
1,9455	-2,7	263,1
1,946	34,4	338,1
1,9465	70,2	408,9
1,947	105,3	473,8
1,9475	138,0	526,2
1,948	165,2	557,9
1,9485	183,8	564,4
1,949	192,3	547,4
1,9495	191,5	512,0
1,95	183,5	461,7
1,9505	169,6	395,5
1,951	150,2	311,6
1,9515	125,4	212,6
1,952	95,6	106,1
1,9525	61,3	1,2
1,953	24,3	-97,2
1,9535	-13,3	-188,7
1,954	-49,1	-275,1
1,9545	-80,9	-357,1
1,955	-107,8	-433,1
1,9555	-131,1	-498,6
1,956	-152,8	-546,5
1,9565	-172,7	-569,9
1,957	-187,5	-566,8
1,9575	-193,3	-541,5
1,958	-188,9	-499,7
1,9585	-175,5	-443,5
1,959	-154,2	-371,0
1,9595	-125,7	-281,3
1,96	-90,8	-178,4
1,9605	-51,1	-70,6
1,961	-9,3	33,6
1,9615	31,9	129,3
1,962	70,9	216,3
1,9625	106,9	297,9
1,963	139,6	376,9
1,9635	168,4	452,1
1,964	191,9	516,9
1,9645	207,6	561,8
1,965	212,3	580,5
1,9655	204,9	572,8
1,966	186,8	543,4
1,9665	161,8	496,5
1,967	133,3	432,6
1,9675	103,0	350,3
1,968	71,5	251,3
1,9685	39,5	142,4
1,969	8,8	32,6
1,9695	-18,7	-71,5
1,97	-41,5	-167,8
1,9705	-59,1	-257,2
1,971	-72,4	-340,4
1,9715	-83,9	-416,3
1,972	-96,5	-482,3
1,9725	-111,0	-533,3
1,973	-125,3	-563,2
1,9735	-135,6	-568,2
1,974	-139,4	-550,3
1,9745	-136,6	-515,1
1,975	-128,0	-465,9
1,9755	-113,7	-401,3
1,976	-94,1	-318,6
1,9765	-72,6	-219,6
1,977	-55,1	-111,7
1,9775	-45,1	-4,6
1,978	-40,7	94,5
1,9785	-35,8	183,8
1,979	-24,8	265,8
1,9795	-4,5	344,1
1,98	25,4	419,2
1,9805	62,6	486,1
1,981	102,8	535,8
1,9815	141,2	560,6
1,982	173,9	559,0
1,9825	198,6	535,6
1,983	214,1	496,0
1,9835	219,4	441,8
1,984	213,1	370,6
1,9845	194,7	281,2
1,985	165,1	177,8
1,9855	127,4	69,1
1,986	85,2	-36,6
1,9865	41,5	-135,6
1,987	-1,5	-228,3
1,9875	-42,5	-316,0
1,988	-80,5	-398,0
1,9885	-114,6	-471,3
1,989	-144,3	-530,2
1,9895	-167,9	-567,7
1,99	-182,6	-579,1
1,9905	-185,8	-565,5
1,991	-177,4	-532,4
1,9915	-160,6	-484,4
1,992	-138,5	-421,4
1,9925	-112,5	-340,8
1,993	-83,0	-243,1
1,9935	-50,9	-134,9
1,994	-18,2	-26,0
1,9945	13,2	75,7
1,995	42,1	167,2
1,9955	68,4	250,1
1,996	92,7	328,6
1,9965	115,5	404,8
1,997	136,6	476,1
1,9975	155,1	534,2
1,998	169,2	569,6
1,9985	177,2	577,8
1,999	178,0	560,4
1,9995	172,0	523,1
2	160,1	469,7
2,0005	143,3	400,2
2,001	121,7	313,5
2,0015	95,7	212,3
2,002	66,7	104,2
2,0025	36,7	-2,4
2,003	7,8	-102,3
2,0035	-19,1	-195,2
2,004	-44,0	-282,3
2,0045	-68,0	-363,7
2,005	-91,8	-437,8
2,0055	-114,4	-500,7
2,006	-133,8	-546,0
2,0065	-147,5	-567,6
2,007	-154,6	-563,8
2,0075	-155,7	-538,5
2,008	-151,9	-496,8
2,0085	-143,4	-440,4
2,009	-129,1	-366,8
2,0095	-108,1	-275,2
2,01	-81,8	-170,0
2,0105	-54,2	-60,7
2,011	-30,1	44,0
2,0115	-11,6	139,1
2,012	3,3	224,9
2,0125	18,3	304,9
2,013	36,5	382,2
2,0135	58,2	454,9
2,014	81,9	515,6
2,0145	104,5	555,0
2,015	123,2	568,0
2,0155	136,2	556,4
2,016	143,3	526,4
2,0165	144,8	482,2
2,017	141,0	423,2
2,0175	131,4	346,5
2,018	115,4	252,3
2,0185	93,0	146,7
2,019	65,8	38,9
2,0195	36,6	-63,7
2,02	7,6	-158,5
2,0205	-20,3	-246,4
2,021	-47,3	-328,3
2,0215	-73,5	-403,7
2,022	-98,1	-470,2
2,0225	-118,9	-522,4
2,023	-133,7	-553,5
2,0235	-141,4	-559,0
2,024	-142,6	-541,2
2,0245	-138,6	-506,7
2,025	-130,0	-459,6
2,0255	-116,9	-398,3
2,026	-98,8	-319,2
2,0265	-75,8	-222,8
2,027	-49,0	-116,1
2,0275	-20,1	-8,6
2,028	9,3	92,5
2,0285	38,0	184,6
2,029	65,7	269,4
2,0295	92,7	350,0
2,03	119,6	427,0
2,0305	145,6	495,6
2,031	168,3	546,9
2,0315	185,0	573,4
2,032	194,0	573,1
2,0325	195,1	550,0
2,033	189,1	509,2
2,0335	176,3	452,7
2,034	155,6	379,1
2,0345	126,4	287,8
2,035	89,7	183,3
2,0355	49,0	74,5
2,036	8,8	-30,8
2,0365	-28,4	-128,9
2,037	-61,8	-220,7
2,0375	-91,7	-307,3
2,038	-118,2	-388,3
2,0385	-140,6	-460,8
2,039	-157,8	-519,6
2,0395	-168,7	-558,3
2,04	-172,9	-572,0
2,0405	-170,8	-560,9
2,041	-163,2	-529,8
2,0415	-151,1	-483,1
2,042	-134,5	-421,4
2,0425	-113,1	-342,2
2,043	-86,4	-246,0
2,0435	-55,4	-138,7
2,044	-22,7	-29,7
2,0445	8,8	73,0
2,045	37,5	166,1
2,0455	64,1	251,2
2,046	89,3	332,1
2,0465	113,5	410,9
2,047	135,1	484,4
2,0475	151,6	544,3
2,048	161,0	581,2
2,0485	162,8	590,9
2,049	157,6	575,4
2,0495	146,1	539,9
2,05	128,5	487,7
2,0505	105,3	418,1
2,051	77,3	329,7
2,0515	46,4	224,9
2,052	14,8	111,9
2,0525	-14,3	0,6
2,053	-39,0	-102,4
2,0535	-59,0	-195,7
2,054	-76,3	-281,6
2,0545	-92,5	-361,6
2,055	-109,0	-435,3
2,0555	-127,4	-499,2
2,056	-148,1	-546,8
2,0565	-168,7	-571,4
2,057	-185,5	-570,4
2,0575	-196,3	-547,0
2,058	-200,7	-506,7
2,0585	-197,8	-451,4
2,059	-185,7	-379,2
2,0595	-162,6	-289,0
2,06	-128,7	-184,8
2,0605	-86,6	-75,3
2,061	-40,8	30,2
2,0615	4,9	126,4
2,062	48,2	213,1
2,0625	89,0	293,6
2,063	127,6	371,4
2,0635	163,1	445,9
2,064	193,0	510,1
2,0645	214,3	553,9
2,065	225,4	570,5
2,0655	226,5	560,1
2,066	219,4	528,3
2,0665	205,0	480,3
2,067	180,6	417,8
2,0675	142,2	339,1
2,068	89,8	244,6
2,0685	29,8	139,5
2,069	-27,9	32,5
2,0695	-75,1	-69,6
2,07	-108,2	-164,3
2,0705	-128,1	-252,6
2,071	-138,4	-335,4
2,0715	-142,7	-411,7
2,072	-143,1	-478,4
2,0725	-140,2	-530,2
2,073	-133,7	-560,6
2,0735	-123,4	-566,2
2,074	-109,7	-548,8
2,0745	-93,9	-513,4
2,075	-77,3	-463,3
2,0755	-60,3	-397,3
2,076	-42,5	-313,3
2,0765	-22,7	-213,3
2,077	-0,4	-104,9
2,0775	23,8	2,5
2,078	48,2	102,6
2,0785	71,1	193,2
2,079	91,3	276,4
2,0795	108,8	355,6
2,08	125,1	431,7
2,0805	141,3	500,2
2,081	157,2	551,6
2,0815	170,6	577,6
2,082	179,0	575,7
2,0825	181,4	550,3
2,083	177,8	508,1
2,0835	168,3	451,7
2,084	152,7	379,2
2,0845	130,6	289,2
2,085	102,7	185,4
2,0855	71,0	76,1
2,086	38,0	-30,4
2,0865	5,6	-130,0
2,087	-25,7	-222,8
2,0875	-55,9	-310,1
2,088	-85,1	-391,3
2,0885	-112,8	-463,9
2,089	-137,7	-522,7
2,0895	-157,9	-561,1
2,09	-171,3	-574,4
2,0905	-176,4	-562,7
2,091	-173,4	-531,0
2,0915	-163,4	-484,2
2,092	-147,3	-422,9
2,0925	-125,6	-344,8
2,093	-98,6	-249,6
2,0935	-67,7	-142,9
2,094	-36,2	-34,3
2,0945	-7,2	67,6
2,095	17,9	158,6
2,0955	40,0	239,8
2,096	60,8	315,7
2,0965	81,5	389,5
2,097	102,6	459,4
2,0975	123,3	517,4
2,098	141,7	554,4
2,0985	155,8	565,6
2,099	164,5	552,1
2,0995	167,3	518,2
2,1	164,1	466,8
2,1005	154,6	398,1
2,101	138,5	311,6
2,1015	116,3	210,4
2,102	89,3	102,2
2,1025	59,6	-4,4
2,103	28,6	-104,1
2,1035	-2,5	-196,5
2,104	-32,8	-282,8
2,1045	-61,1	-363,3
2,105	-86,4	-436,5
2,1055	-107,9	-498,8
2,106	-125,3	-544,3
2,1065	-137,8	-567,4
2,107	-144,5	-566,1
2,1075	-145,7	-544,1
2,108	-142,0	-506,4
2,1085	-133,4	-453,9
2,109	-118,9	-384,1
2,1095	-97,8	-295,4
2,11	-70,3	-192,0
2,1105	-38,9	-83,1
2,111	-6,4	21,9
2,1115	24,4	117,4
2,112	51,7	203,4
2,1125	74,4	283,5
2,113	92,0	361,4
2,1135	105,0	436,3
2,114	114,6	501,4
2,1145	121,6	547,3
2,115	125,8	567,1
2,1155	126,5	560,7
2,116	123,1	532,6
2,1165	116,2	487,6
2,117	105,8	426,6
2,1175	91,9	348,1
2,118	73,9	252,8
2,1185	51,9	146,2
2,119	27,1	37,0
2,1195	1,1	-67,6
2,12	-24,6	-165,1
2,1205	-48,9	-255,8
2,121	-71,2	-339,8
2,1215	-90,9	-416,2
2,122	-107,9	-482,3
2,1225	-122,3	-533,3
2,123	-133,6	-563,4
2,1235	-141,2	-569,2
2,124	-144,0	-552,2
2,1245	-141,4	-517,4
2,125	-133,3	-467,8
2,1255	-119,7	-402,4
2,126	-100,8	-319,1
2,1265	-77,0	-220,0
2,127	-49,5	-112,5
2,1275	-20,2	-5,9
2,128	8,4	93,3
2,1285	34,6	183,4
2,129	58,0	266,6
2,1295	79,7	346,0
2,13	100,9	422,3
2,1305	121,4	491,0
2,131	139,8	543,6
2,1315	154,1	572,6
2,132	162,3	575,5
2,1325	163,9	555,8
2,133	159,3	518,3
2,1335	148,6	464,5
2,134	130,8	392,8
2,1345	105,4	302,2
2,135	73,7	197,0
2,1355	39,3	85,9
2,136	6,2	-22,2
2,1365	-23,5	-122,9
2,137	-50,0	-216,6
2,1375	-74,3	-304,7
2,138	-97,0	-387,3
2,1385	-117,8	-461,8
2,139	-135,8	-523,3
2,1395	-149,4	-564,8
2,14	-157,3	-581,0
2,1405	-159,0	-571,7
2,141	-154,9	-541,7
2,1415	-146,0	-495,5
2,142	-131,9	-434,1
2,1425	-111,8	-355,7
2,143	-85,2	-261,3
2,1435	-53,3	-157,1
2,144	-18,6	-51,8
2,1445	16,2	47,3
2,145	49,1	137,8
2,1455	79,6	221,2
2,146	107,6	301,2
2,1465	133,1	379,7
2,147	155,7	453,5
2,1475	174,6	514,5
2,148	188,6	553,5
2,1485	196,3	565,5
2,149	196,9	552,2
2,1495	189,8	518,8
2,15	175,2	469,2
2,1505	153,7	403,0
2,151	126,5	318,6
2,1515	95,1	218,1
2,152	61,6	108,9
2,1525	28,3	0,4
2,153	-3,4	-101,2
2,1535	-34,3	-195,0
2,154	-65,9	-282,1
2,1545	-98,3	-363,3
2,155	-130,0	-437,2
2,1555	-158,4	-500,7
2,156	-181,9	-547,8
2,1565	-200,8	-572,3
2,157	-216,0	-571,3
2,1575	-226,8	-548,3
2,158	-230,4	-508,4
2,1585	-223,6	-454,1
2,159	-205,5	-383,5
2,1595	-176,3	-295,1
2,16	-138,0	-192,4
2,1605	-93,7	-83,9
2,161	-47,3	21,4
2,1615	-2,0	118,3
2,162	40,3	206,2
2,1625	79,6	288,1
2,163	116,0	367,1
2,1635	149,3	442,5
2,164	178,2	507,9
2,1645	200,4	553,8
2,165	213,8	573,7
2,1655	217,7	567,0
2,166	213,3	538,9
2,1665	202,9	494,2
2,167	187,3	433,9
2,1675	166,1	355,9
2,168	138,7	260,7
2,1685	106,2	154,0
2,169	70,7	44,9
2,1695	34,4	-59,2
2,17	-0,8	-155,6
2,1705	-33,8	-245,0
2,171	-64,0	-328,2
2,1715	-93,5	-404,5
2,172	-126,9	-472,0
2,1725	-166,3	-526,0
2,173	-207,3	-559,9
2,1735	-240,3	-569,0
2,174	-257,0	-554,3
2,1745	-255,3	-520,7
2,175	-237,5	-471,7
2,1755	-206,7	-406,5
2,176	-165,3	-323,0
2,1765	-115,6	-222,9
2,177	-60,8	-113,6
2,1775	-6,6	-4,9
2,178	41,6	96,1
2,1785	80,5	187,0
2,179	110,6	270,1
2,1795	134,6	348,9
2,18	154,8	424,2
2,1805	172,3	491,3
2,181	186,9	541,5
2,1815	197,3	567,7
2,182	201,5	568,0
2,1825	198,2	546,6
2,183	188,3	508,7
2,1835	173,1	455,9
2,184	152,3	386,2
2,1845	125,0	298,0
2,185	92,0	195,1
2,1855	57,1	85,5
2,186	24,3	-22,0
2,1865	-4,9	-122,8
2,187	-31,0	-216,2
2,1875	-55,3	-302,4
2,188	-78,3	-381,0
2,1885	-99,7	-450,6
2,189	-118,3	-508,2
2,1895	-132,5	-548,7
2,19	-141,3	-567,5
2,1905	-144,8	-563,8
2,191	-144,6	-540,9
2,1915	-141,1	-501,8
2,192	-133,4	-445,8
2,1925	-119,2	-370,0
2,193	-97,0	-274,3
2,1935	-67,7	-165,0
2,194	-33,6	-52,3
2,1945	1,8	54,3
2,195	35,7	150,3
2,1955	66,5	236,0
2,196	94,2	315,3
2,1965	119,9	390,8
2,197	144,4	461,2
2,1975	166,3	519,2
2,198	182,9	556,0
2,1985	191,8	566,7
2,199	192,3	552,6
2,1995	185,7	519,0
2,2	173,6	469,7
2,2005	156,8	404,2
2,201	135,3	320,9
2,2015	108,8	221,5
2,202	79,0	112,9
2,2025	48,2	4,1
2,203	18,4	-99,2
2,2035	-10,0	-195,1
2,204	-37,4	-284,1
2,2045	-64,6	-365,9
2,205	-91,2	-439,1
2,2055	-116,3	-500,9
2,206	-137,9	-546,2
2,2065	-153,8	-569,5
2,207	-162,2	-568,1
2,2075	-163,2	-544,3
2,208	-157,7	-503,3
2,2085	-147,3	-447,4
2,209	-132,9	-375,5
2,2095	-114,9	-286,1
2,21	-93,9	-182,4
2,2105	-71,4	-72,8
2,211	-48,6	33,6
2,2115	-26,1	130,8
2,212	-3,7	218,2
2,2125	19,6	298,5
2,213	44,8	375,5
2,2135	72,2	448,8
2,214	100,3	512,5
2,2145	126,2	556,6
2,215	146,8	574,2
2,2155	159,9	565,3
2,216	164,8	535,2
2,2165	161,9	489,1
2,217	152,0	427,6
2,2175	136,2	348,6
2,218	114,9	252,4
2,2185	88,8	144,5
2,219	59,4	33,3
2,2195	28,1	-73,5
2,22	-3,6	-172,5
2,2205	-34,5	-263,4
2,221	-63,9	-346,5
2,2215	-91,3	-421,7
2,222	-116,4	-487,8
2,2225	-138,0	-540,3
2,223	-154,2	-572,8
2,2235	-162,7	-580,7
2,224	-162,1	-564,6
2,2245	-153,7	-529,7
2,225	-140,2	-479,8
2,2255	-123,1	-414,8
2,226	-102,3	-332,4
2,2265	-77,1	-234,0
2,227	-47,6	-126,4
2,2275	-15,8	-18,9
2,228	15,6	81,2
2,2285	43,6	171,3
2,229	66,3	253,5
2,2295	83,3	331,8
2,23	95,9	407,7
2,2305	106,5	477,1
2,231	116,1	531,3
2,2315	123,3	562,0
2,232	126,3	565,9
2,2325	124,1	546,4
2,233	117,9	508,7
2,2335	108,6	454,8
2,234	95,9	383,4
2,2345	79,3	293,5
2,235	58,9	189,3
2,2355	36,1	79,4
2,236	12,4	-27,5
2,2365	-10,8	-127,0
2,237	-33,7	-219,1
2,2375	-56,3	-304,8
2,238	-78,3	-383,8
2,2385	-99,1	-454,5
2,239	-117,9	-513,1
2,2395	-133,2	-553,4
2,24	-142,9	-569,8
2,2405	-145,6	-561,1
2,241	-141,8	-532,0
2,2415	-133,4	-487,5
2,242	-121,9	-428,6
2,2425	-106,6	-353,0
2,243	-86,3	-260,4
2,2435	-60,7	-155,9
2,244	-31,0	-48,7
2,2445	0,8	53,1
2,245	32,5	145,3
2,2455	62,9	228,6
2,246	91,7	306,7
2,2465	118,6	382,7
2,247	143,1	454,7
2,2475	163,9	515,3
2,248	179,3	554,8
2,2485	188,2	567,9
2,249	190,3	555,6
2,2495	186,2	523,6
2,25	176,6	475,6
2,2505	161,4	411,4
2,251	140,3	329,1
2,2515	112,9	230,5
2,252	79,7	122,7
2,2525	42,3	15,1
2,253	3,3	-86,2
2,2535	-35,1	-179,9
2,254	-70,9	-267,6
2,2545	-102,8	-349,6
2,255	-129,6	-424,7
2,2555	-150,7	-489,4
2,256	-165,1	-537,7
2,2565	-172,2	-563,0
2,257	-172,0	-562,5
2,2575	-166,4	-539,2
2,258	-158,1	-498,8
2,2585	-149,9	-443,8
2,259	-144,5	-372,9
2,2595	-145,3	-284,6
2,26	-153,7	-182,8
2,2605	-165,9	-75,6
2,261	-173,3	28,4
2,2615	-167,5	124,0
2,262	-145,0	210,9
2,2625	-106,7	291,7
2,263	-56,3	369,5
2,2635	2,0	444,5
2,264	63,4	511,3
2,2645	122,9	560,5
2,265	175,3	584,4
2,2655	216,3	581,5
2,266	243,9	555,8
2,2665	257,3	512,5
2,267	256,5	452,8
2,2675	241,7	375,1
2,268	214,0	279,0
2,2685	176,1	169,3
2,269	132,0	54,8
2,2695	86,3	-56,1
2,27	42,2	-159,1
2,2705	0,8	-253,8
2,271	-38,1	-341,4
2,2715	-75,1	-421,0
2,272	-110,1	-489,6
2,2725	-140,4	-542,1
2,273	-161,5	-572,8
2,2735	-168,7	-578,6
2,274	-161,6	-561,5
2,2745	-144,8	-526,6
2,275	-124,4	-477,4
2,2755	-104,1	-413,2
2,276	-83,7	-332,0
2,2765	-61,3	-235,5
2,277	-35,9	-130,4
2,2775	-7,9	-25,1
2,278	21,1	74,2
2,2785	49,3	165,1
2,279	75,2	249,2
2,2795	97,8	329,1
2,28	117,5	405,5
2,2805	135,2	474,5
2,281	150,6	528,2
2,2815	162,2	558,5
2,282	167,3	562,5
2,2825	164,9	543,3
2,283	155,8	506,4
2,2835	141,7	454,0
2,284	123,3	384,8
2,2845	100,3	297,3
2,285	72,9	194,8
2,2855	42,1	85,8
2,286	10,3	-20,9
2,2865	-20,0	-120,3
2,287	-47,3	-211,4
2,2875	-71,1	-295,3
2,288	-92,0	-372,5
2,2885	-110,6	-441,5
2,289	-127,3	-498,9
2,2895	-140,9	-538,6
2,29	-149,8	-555,2
2,2905	-152,5	-547,3
2,291	-148,8	-519,0
2,2915	-139,7	-474,9
2,292	-126,4	-416,3
2,2925	-108,9	-341,3
2,293	-86,4	-249,1
2,2935	-58,9	-144,5
2,294	-27,8	-36,5
2,2945	4,5	66,3
2,295	35,7	159,2
2,2955	64,4	243,0
2,296	90,9	321,6
2,2965	116,5	397,6
2,297	141,5	469,4
2,2975	164,5	529,4
2,298	182,5	568,5
2,2985	193,0	581,6
2,299	195,4	569,8
2,2995	190,3	537,6
2,3	178,8	488,1
2,3005	161,4	420,4
2,301	138,3	332,9
2,3015	110,1	228,7
2,302	78,3	116,3
2,3025	45,1	6,3
2,303	12,4	-95,1
2,3035	-18,4	-187,6
2,304	-47,4	-273,6
2,3045	-74,5	-354,1
2,305	-99,9	-428,1
2,3055	-123,1	-492,2
2,306	-143,0	-541,0
2,3065	-157,8	-568,4
2,307	-166,2	-571,4
2,3075	-167,5	-552,2
2,308	-162,6	-515,3
2,3085	-152,3	-462,9
2,309	-136,6	-393,2
2,3095	-115,4	-305,2
2,31	-88,7	-202,4
2,3105	-57,8	-93,6
2,311	-25,0	11,9
2,3115	7,3	107,9
2,312	37,6	194,1
2,3125	65,3	274,3
2,313	90,9	352,8
2,3135	114,7	429,4
2,314	136,0	497,7
2,3145	152,1	547,8
2,315	159,8	572,2
2,3155	158,1	569,8
2,316	148,2	545,3
2,3165	132,4	503,6
2,317	112,6	445,6
2,3175	89,5	369,3
2,318	63,8	274,8
2,3185	36,2	167,9
2,319	8,6	57,9
2,3195	-17,2	-47,1
2,32	-40,2	-144,1
2,3205	-61,2	-234,2
2,321	-81,3	-318,3
2,3215	-101,3	-396,2
2,322	-120,5	-465,3
2,3225	-137,6	-520,6
2,323	-151,1	-555,6
2,3235	-159,8	-565,5
2,324	-162,7	-551,0
2,3245	-160,0	-517,1
2,325	-152,5	-467,8
2,3255	-140,8	-403,1
2,326	-124,7	-320,9
2,3265	-103,2	-222,5
2,327	-76,7	-114,9
2,3275	-47,1	-7,6
2,328	-17,4	91,9
2,3285	10,0	181,0
2,329	34,5	262,5
2,3295	57,5	340,4
2,33	80,8	416,3
2,3305	104,9	486,1
2,331	128,8	540,8
2,3315	149,5	571,8
2,332	164,2	575,9
2,3325	171,7	556,4
2,333	173,1	519,2
2,3335	169,7	466,8
2,334	160,5	398,1
2,3345	143,2	311,3
2,335	116,0	209,6
2,3355	80,3	101,0
2,336	40,1	-5,4
2,3365	0,2	-104,5
2,337	-36,4	-196,4
2,3375	-68,6	-282,6
2,338	-96,7	-363,3
2,3385	-121,0	-436,9
2,339	-141,5	-499,0
2,3395	-156,9	-543,1
2,34	-165,6	-563,0
2,3405	-166,3	-557,5
2,341	-159,7	-530,6
2,3415	-147,0	-487,8
2,342	-129,9	-430,5
2,3425	-108,9	-356,7
2,343	-84,0	-265,5
2,3435	-55,6	-161,3
2,344	-24,8	-52,6
2,3445	6,8	51,9
2,345	37,5	147,2
2,3455	66,6	233,1
2,346	93,9	313,2
2,3465	120,0	390,4
2,347	144,6	463,3
2,3475	166,3	524,6
2,348	182,7	565,1
2,3485	192,3	579,1
2,349	194,6	568,0
2,3495	190,6	537,5
2,35	181,7	491,5
2,3505	168,6	429,5
2,351	150,4	349,0
2,3515	126,3	251,0
2,352	96,5	142,1
2,3525	62,6	31,4
2,353	26,8	-74,9
2,3535	-8,6	-174,3
2,354	-41,8	-266,2
2,3545	-71,9	-349,8
2,355	-98,8	-424,0
2,3555	-122,4	-487,0
2,356	-141,7	-535,0
2,3565	-155,7	-562,4
2,357	-164,0	-565,5
2,3575	-166,9	-545,7
2,358	-164,8	-507,0
2,3585	-157,6	-452,3
2,359	-144,7	-381,2
2,3595	-125,7	-293,4
2,36	-101,4	-192,8
2,3605	-73,4	-87,3
2,361	-43,6	15,0
2,3615	-13,6	109,0
2,362	15,6	194,6
2,3625	44,2	275,3
2,363	72,6	354,3
2,3635	100,9	431,2
2,364	127,7	499,2
2,3645	150,3	548,1
2,365	166,1	570,3
2,3655	173,8	565,2
2,366	173,7	538,5
2,3665	166,6	496,0
2,367	153,2	439,0
2,3675	133,7	365,0
2,368	108,6	273,4
2,3685	78,6	169,2
2,369	44,4	61,7
2,3695	6,6	-41,3
2,37	-33,8	-136,8
2,3705	-76,1	-225,8
2,371	-119,7	-309,2
2,3715	-162,7	-386,4
2,372	-200,7	-454,7
2,3725	-228,6	-509,5
2,373	-243,5	-544,2
2,3735	-245,0	-554,4
2,374	-234,4	-540,7
2,3745	-214,5	-508,0
2,375	-187,7	-460,3
2,3755	-155,6	-397,0
2,376	-119,2	-316,1
2,3765	-79,6	-219,4
2,377	-38,1	-114,0
2,3775	2,9	-9,4
2,378	40,8	87,4
2,3785	72,2	174,6
2,379	93,0	254,9
2,3795	100,2	332,8
2,38	95,1	410,0
2,3805	84,6	482,2
2,381	76,2	539,5
2,3815	73,9	572,7
2,382	77,5	577,9
2,3825	84,9	558,5
2,383	94,6	520,7
2,3835	104,9	467,8
2,384	113,8	398,5
2,3845	118,6	311,2
2,385	117,5	208,8
2,3855	110,0	99,0
2,386	96,8	-9,3
2,3865	78,6	-111,0
2,387	55,3	-205,5
2,3875	26,5	-293,4
2,388	-6,9	-374,6
2,3885	-42,4	-447,3
2,389	-76,3	-507,8
2,3895	-105,1	-550,0
2,39	-126,6	-568,1
2,3905	-139,4	-560,8
2,391	-144,3	-532,3
2,3915	-142,7	-487,3
2,392	-135,2	-427,5
2,3925	-120,5	-351,0
2,393	-97,0	-257,8
2,3935	-65,8	-152,5
2,394	-30,5	-43,9
2,3945	4,1	59,7
2,395	35,2	153,9
2,3955	62,3	239,1
2,396	86,2	318,9
2,3965	108,3	395,9
2,397	129,0	468,9
2,3975	147,6	530,7
2,398	162,3	572,2
2,3985	171,1	587,6
2,399	173,2	577,8
2,3995	168,8	547,9
2,4	158,8	501,8
2,4005	143,1	439,5
2,401	121,4	358,8
2,4015	93,3	261,3
2,402	59,5	153,4
2,4025	22,5	44,3
2,403	-14,8	-59,4
2,4035	-49,7	-155,4
2,404	-81,2	-244,4
2,4045	-109,1	-326,8
2,405	-133,2	-401,5
2,4055	-152,9	-466,1
2,406	-167,0	-515,3
2,4065	-174,9	-542,9
2,407	-177,7	-545,8
2,4075	-176,5	-526,4
2,408	-171,6	-490,1
2,4085	-162,1	-439,8
2,409	-147,5	-373,8
2,4095	-128,2	-290,1
2,41	-105,0	-190,5
2,4105	-79,4	-83,1
2,411	-53,8	22,4
2,4115	-29,3	119,4
2,412	-5,7	206,5
2,4125	18,6	287,3
2,413	45,1	365,3
2,4135	74,1	440,3
2,414	104,5	506,4
2,4145	133,4	554,2
2,415	157,1	576,7
2,4155	173,3	573,3
2,416	181,3	548,3
2,4165	180,8	506,9
2,417	170,9	450,0
2,4175	151,0	375,3
2,418	122,5	282,6
2,4185	88,6	177,0
2,419	53,1	67,7
2,4195	18,6	-37,0
2,42	-13,4	-133,8
2,4205	-42,5	-223,5
2,421	-68,7	-307,1
2,4215	-91,9	-384,6
2,422	-112,0	-453,9
2,4225	-128,7	-510,5
2,423	-140,8	-547,5
2,4235	-147,2	-559,5
2,424	-147,1	-546,8
2,4245	-141,1	-514,4
2,425	-129,9	-466,5
2,4255	-113,7	-403,1
2,426	-92,3	-322,3
2,4265	-66,2	-225,2
2,427	-36,4	-118,2
2,4275	-4,8	-10,6
2,428	27,2	90,3
2,4285	57,9	181,4
2,429	86,3	264,6
2,4295	111,7	343,3
2,43	134,2	419,5
2,4305	153,4	489,6
2,431	168,6	545,4
2,4315	178,6	578,5
2,432	183,1	585,1
2,4325	182,5	568,1
2,433	177,7	532,7
2,4335	168,9	481,7
2,434	155,7	413,7
2,4345	136,6	327,5
2,435	111,3	226,1
2,4355	80,5	117,4
2,436	46,4	10,2
2,4365	11,3	-90,8
2,437	-23,6	-184,7
2,4375	-57,9	-272,4
2,438	-91,1	-353,9
2,4385	-122,3	-428,1
2,439	-150,1	-491,2
2,4395	-172,6	-536,3
2,44	-187,8	-556,7
2,4405	-194,0	-550,4
2,441	-191,8	-522,0
2,4415	-183,1	-477,2
2,442	-169,5	-418,3
2,4425	-151,1	-343,5
2,443	-126,9	-251,8
2,4435	-96,7	-148,1
2,444	-62,1	-41,4
2,4445	-25,6	59,4
2,445	10,9	150,3
2,4455	45,8	232,0
2,446	78,3	308,3
2,4465	108,1	382,5
2,447	135,0	453,4
2,4475	158,7	513,9
2,448	177,9	554,0
2,4485	192,0	568,2
2,449	200,8	557,5
2,4495	204,1	527,5
2,45	200,2	482,1
2,4505	187,0	420,9
2,451	163,8	341,6
2,4515	132,4	245,1
2,452	96,4	137,9
2,4525	59,9	29,6
2,453	25,8	-73,5
2,4535	-4,5	-169,2
2,454	-31,6	-258,5
2,4545	-56,4	-341,6
2,455	-79,6	-417,1
2,4555	-101,2	-481,9
2,456	-119,9	-531,0
2,4565	-133,9	-558,3
2,457	-141,6	-560,9
2,4575	-142,5	-541,1
2,458	-137,6	-504,1
2,4585	-127,7	-452,3
2,459	-113,2	-383,8
2,4595	-93,9	-296,6
2,46	-69,7	-193,8
2,4605	-41,8	-83,8
2,461	-12,2	23,5
2,4615	16,8	122,1
2,462	44,1	211,1
2,4625	69,8	293,3
2,463	95,0	372,0
2,4635	119,9	447,1
2,464	143,5	512,9
2,4645	163,3	560,7
2,465	177,2	583,7
2,4655	183,7	580,6
2,466	182,8	555,6
2,4665	174,8	513,6
2,467	160,5	456,2
2,4675	139,8	381,1
2,468	113,2	287,5
2,4685	81,5	179,7
2,469	47,4	66,5
2,4695	13,6	-43,2
2,47	-17,9	-144,9
2,4705	-47,2	-238,2
2,471	-74,8	-323,7
2,4715	-100,7	-401,4
2,472	-123,8	-469,6
2,4725	-142,6	-524,0
2,473	-156,1	-558,2
2,4735	-163,2	-567,8
2,474	-164,0	-553,8
2,4745	-159,3	-521,6
2,475	-151,1	-475,5
2,4755	-141,1	-415,4
2,476	-128,3	-338,6
2,4765	-110,5	-245,2
2,477	-86,2	-140,8
2,4775	-56,8	-34,7
2,478	-25,0	65,7
2,4785	6,6	157,1
2,479	36,7	241,1
2,4795	65,0	321,3
2,48	92,0	399,4
2,4805	117,5	472,1
2,481	140,3	530,7
2,4815	156,6	566,1
2,482	159,6	574,1
2,4825	143,3	557,4
2,483	107,0	521,6
2,4835	57,9	469,8
2,484	6,9	401,3
2,4845	-37,3	314,5
2,485	-70,6	212,6
2,4855	-92,5	103,3
2,486	-103,9	-4,1
2,4865	-106,7	-104,4
2,487	-103,7	-196,9
2,4875	-97,8	-282,7
2,488	-91,3	-362,1
2,4885	-86,4	-433,8
2,489	-84,4	-494,4
2,4895	-85,3	-537,8
2,49	-87,7	-558,1
2,4905	-89,8	-553,4
2,491	-89,8	-527,6
2,4915	-86,5	-486,0
2,492	-78,7	-430,3
2,4925	-65,6	-357,8
2,493	-47,5	-267,2
2,4935	-26,5	-162,9
2,494	-5,2	-54,0
2,4945	14,3	50,4
2,495	32,4	145,1
2,4955	51,0	230,2
2,496	73,0	309,5
2,4965	100,0	386,5
2,497	130,5	460,1
2,4975	160,3	522,7
2,498	184,3	564,0
2,4985	198,9	578,0
2,499	203,8	566,3
2,4995	200,8	535,1
2,5	192,1	488,8
2,5005	178,1	427,6
2,501	158,3	348,7
2,5015	131,8	252,7
2,502	99,4	145,8
2,5025	63,8	37,4
2,503	27,8	-65,2
2,5035	-6,5	-160,1
2,504	-38,7	-248,5
2,5045	-69,1	-331,4
2,505	-97,4	-407,7
2,5055	-122,8	-474,4
2,506	-143,9	-526,0
2,5065	-159,4	-555,8
2,507	-168,3	-560,5
2,5075	-171,2	-541,9
2,508	-169,8	-505,7
2,5085	-165,8	-454,7
2,509	-158,3	-387,7
2,5095	-144,6	-302,4
2,51	-122,9	-201,3
2,5105	-93,5	-92,4
2,511	-58,9	14,6
2,5115	-22,3	113,0
2,512	13,3	201,2
2,5125	46,6	282,1
2,513	77,4	359,6
2,5135	105,3	434,4
2,514	129,6	501,4
2,5145	148,9	551,7
2,515	161,7	577,3
2,5155	167,3	576,5
2,516	165,6	553,1
2,5165	157,7	512,1
2,517	144,5	455,3
2,5175	126,2	381,1
2,518	101,8	289,0
2,5185	71,2	183,6
2,519	36,2	73,7
2,5195	0,3	-32,5
2,52	-33,6	-131,4
2,5205	-64,1	-223,3
2,521	-91,3	-308,7
2,5215	-114,9	-386,9
2,522	-134,5	-455,8
2,5225	-149,5	-511,1
2,523	-159,0	-547,3
2,5235	-162,3	-559,6
2,524	-159,3	-548,0
2,5245	-150,8	-516,9
2,525	-137,9	-470,2
2,5255	-120,8	-408,0
2,526	-99,0	-328,1
2,5265	-72,3	-231,5
2,527	-41,3	-124,7
2,5275	-8,2	-17,0
2,528	24,5	83,8
2,5285	54,8	174,9
2,529	82,0	258,2
2,5295	105,0	337,6
2,53	122,3	414,8
2,5305	132,7	486,5
2,531	136,6	544,1
2,5315	135,3	578,2
2,532	130,5	584,8
2,5325	122,8	566,3
2,533	113,2	528,6
2,5335	102,4	475,2
2,534	90,7	405,6
2,5345	77,1	318,5
2,535	60,2	216,7
2,5355	39,8	107,9
2,536	17,1	1,0
2,5365	-6,3	-98,8
2,537	-29,1	-190,9
2,5375	-50,9	-276,8
2,538	-71,7	-356,8
2,5385	-91,0	-429,3
2,539	-108,9	-490,4
2,5395	-124,8	-533,7
2,54	-137,4	-553,3
2,5405	-145,2	-547,6
2,541	-147,1	-520,7
2,5415	-142,7	-477,8
2,542	-132,3	-420,5
2,5425	-116,3	-346,7
2,543	-94,8	-255,1
2,5435	-68,2	-149,9
2,544	-37,8	-39,8
2,5445	-6,1	65,9
2,545	24,9	162,0
2,5455	54,4	248,3
2,546	82,8	327,7
2,5465	111,1	402,5
2,547	139,8	472,3
2,5475	167,7	531,4
2,548	191,1	571,4
2,5485	205,4	585,8
2,549	207,8	574,5
2,5495	199,1	542,4
2,55	182,8	494,4
2,5505	162,3	431,1
2,551	139,3	350,7
2,5515	114,2	253,8
2,552	86,7	146,5
2,5525	57,2	37,2
2,553	26,6	-67,5
2,5535	-3,9	-165,6
2,554	-33,6	-257,5
2,5545	-61,6	-343,0
2,555	-87,5	-420,6
2,5555	-110,6	-486,9
2,556	-129,7	-536,9
2,5565	-143,2	-564,9
2,557	-149,7	-567,8
2,5575	-148,8	-548,0
2,558	-141,5	-511,0
2,5585	-129,0	-459,7
2,559	-112,1	-392,8
2,5595	-90,7	-307,9
2,56	-65,3	-207,4
2,5605	-37,1	-99,1
2,561	-7,8	7,6
2,5615	20,9	106,0
2,562	47,7	194,7
2,5625	72,2	276,8
2,563	94,9	356,0
2,5635	116,6	432,9
2,564	136,9	502,0
2,5645	153,8	553,8
2,565	164,8	580,4
2,5655	168,8	580,2
2,566	166,1	557,1
2,5665	157,6	516,2
2,567	144,1	459,2
2,5675	125,9	384,8
2,568	103,2	293,2
2,5685	76,9	188,8
2,569	48,3	80,4
2,5695	18,3	-24,5
2,57	-12,0	-122,6
2,5705	-41,7	-214,4
2,571	-70,2	-300,9
2,5715	-97,3	-381,7
2,572	-123,1	-454,9
2,5725	-146,7	-515,6
2,573	-166,1	-556,3
2,5735	-178,6	-570,9
2,574	-182,1	-559,3
2,5745	-177,0	-527,0
2,575	-164,9	-479,6
2,5755	-147,5	-418,2
2,576	-124,8	-340,1
2,5765	-96,1	-244,8
2,577	-62,9	-137,8
2,5775	-28,4	-28,6
2,578	4,3	74,4
2,5785	33,8	167,4
2,579	60,7	251,5
2,5795	86,0	330,5
2,58	110,2	406,5
2,5805	133,3	476,8
2,581	153,7	533,7
2,5815	169,6	568,4
2,582	179,0	576,8
2,5825	181,5	560,9
2,583	178,1	526,0
2,5835	169,4	475,2
2,584	155,3	407,6
2,5845	134,9	321,9
2,585	108,0	220,7
2,5855	76,0	111,7
2,586	41,7	3,9
2,5865	7,8	-97,0
2,587	-24,2	-190,4
2,5875	-53,8	-277,4
2,588	-81,2	-358,4
2,5885	-106,2	-432,1
2,589	-128,3	-494,8
2,5895	-147,5	-540,3
2,59	-162,8	-562,8
2,5905	-173,6	-559,9
2,591	-181,3	-535,4
2,5915	-189,8	-494,5
2,592	-200,8	-438,9
2,5925	-211,0	-366,6
2,593	-212,5	-276,3
2,5935	-199,5	-172,2
2,594	-171,2	-63,0
2,5945	-130,9	42,2
2,595	-84,8	138,2
2,5955	-38,7	224,8
2,596	4,0	305,0
2,5965	43,2	381,9
2,597	80,1	454,4
2,5975	113,8	515,9
2,598	141,3	557,3
2,5985	160,7	572,8
2,599	171,9	562,8
2,5995	176,2	532,8
2,6	174,9	487,5
2,6005	168,6	427,1
2,601	157,2	349,1
2,6015	140,0	254,1
2,602	117,3	148,1
2,6025	89,8	40,3
2,603	59,3	-62,0
2,6035	26,8	-156,3
2,604	-6,8	-243,5
2,6045	-39,8	-324,7
2,605	-69,9	-399,6
2,6055	-94,7	-465,7
2,606	-113,3	-517,6
2,6065	-125,8	-548,6
2,607	-132,6	-554,5
2,6075	-133,8	-537,0
2,608	-130,5	-501,0
2,6085	-123,3	-449,6
2,609	-112,1	-381,9
2,6095	-95,5	-296,3
2,61	-72,6	-195,0
2,6105	-44,3	-86,0
2,611	-13,1	21,4
2,6115	17,9	120,7
2,612	46,3	210,3
2,6125	71,7	292,3
2,613	94,9	369,5
2,6135	116,9	442,2
2,614	137,7	505,7
2,6145	155,5	552,3
2,615	168,3	575,2
2,6155	175,0	573,6
2,616	176,3	551,4
2,6165	173,2	513,4
2,617	165,5	460,3
2,6175	152,1	389,0
2,618	131,5	297,8
2,6185	103,8	190,5
2,619	71,2	76,4
2,6195	36,4	-34,2
2,62	1,1	-135,4
2,6205	-33,5	-227,1
2,621	-66,7	-311,0
2,6215	-97,5	-388,1
2,622	-125,3	-457,3
2,6225	-149,1	-514,5
2,623	-166,8	-553,1
2,6235	-176,8	-567,7
2,624	-178,9	-558,0
2,6245	-175,3	-528,5
2,625	-168,5	-483,7
2,6255	-159,3	-424,3
2,626	-146,3	-348,0
2,6265	-127,8	-254,6
2,627	-103,6	-149,3
2,6275	-74,3	-41,1
2,628	-42,1	61,6
2,6285	-9,3	155,1
2,629	22,8	240,4
2,6295	53,6	321,1
2,63	83,8	398,9
2,6305	113,2	471,2
2,631	140,3	530,2
2,6315	162,6	567,0
2,632	177,3	577,1
2,6325	183,8	562,9
2,633	182,5	529,9
2,6335	174,8	481,4
2,634	161,4	416,4
2,6345	142,3	332,8
2,635	117,8	233,2
2,6355	89,4	125,1
2,636	59,3	17,7
2,6365	29,3	-83,9
2,637	-0,7	-178,9
2,6375	-31,4	-268,5
2,638	-62,8	-352,2
2,6385	-93,6	-427,9
2,639	-121,8	-491,6
2,6395	-144,9	-537,0
2,64	-160,8	-558,3
2,6405	-168,2	-553,5
2,641	-167,1	-527,2
2,6415	-159,5	-484,8
2,642	-147,3	-428,2
2,6425	-131,6	-355,5
2,643	-112,4	-266,0
2,6435	-89,8	-164,1
2,644	-64,9	-58,7
2,6445	-39,1	41,8
2,645	-13,2	133,2
2,6455	12,9	216,5
2,646	39,7	295,5
2,6465	67,9	373,2
2,647	97,3	448,2
2,6475	126,3	513,5
2,648	151,7	559,4
2,6485	170,6	579,1
2,649	181,2	572,3
2,6495	183,9	543,8
2,65	180,2	498,3
2,6505	170,7	436,5
2,651	155,0	356,8
2,6515	132,2	260,4
2,652	102,7	153,3
2,6525	68,8	44,5
2,653	33,6	-59,1
2,6535	-0,3	-155,5
2,654	-32,0	-245,7
2,6545	-61,7	-330,9
2,655	-89,4	-410,4
2,6555	-115,0	-481,1
2,656	-137,2	-536,7
2,6565	-154,5	-569,8
2,657	-164,8	-576,2
2,6575	-167,2	-557,9
2,658	-162,2	-520,6
2,6585	-151,7	-468,3
2,659	-137,2	-400,3
2,6595	-119,3	-315,1
2,66	-97,5	-214,6
2,6605	-71,6	-106,3
2,661	-42,7	0,6
2,6615	-12,5	99,7
2,662	17,7	189,3
2,6625	47,5	271,6
2,663	77,0	350,3
2,6635	105,8	426,2
2,664	132,4	494,8
2,6645	154,8	547,2
2,665	170,9	574,9
2,6655	179,4	575,7
2,666	180,1	553,3
2,6665	173,8	513,4
2,667	161,6	458,1
2,6675	144,2	385,5
2,668	121,8	294,5
2,6685	95,0	189,4
2,669	65,2	78,9
2,6695	33,9	-28,1
2,67	2,4	-127,6
2,6705	-28,2	-219,8
2,671	-57,4	-305,9
2,6715	-84,6	-385,7
2,672	-109,2	-456,9
2,6725	-130,8	-515,0
2,673	-148,8	-553,6
2,6735	-162,3	-567,7
2,674	-170,4	-557,2
2,6745	-172,5	-526,5
2,675	-168,4	-479,9
2,6755	-158,0	-417,6
2,676	-140,8	-337,3
2,6765	-116,4	-239,6
2,677	-85,8	-130,6
2,6775	-51,0	-19,9
2,678	-15,3	84,2
2,6785	18,1	177,8
2,679	47,4	262,0
2,6795	73,0	340,8
2,68	96,4	416,8
2,6805	118,6	488,3
2,681	139,0	547,6
2,6815	155,9	585,6
2,682	167,2	596,9
2,6825	171,5	582,7
2,683	168,8	547,8
2,6835	159,3	496,0
2,684	142,6	426,4
2,6845	118,9	337,2
2,685	89,5	230,4
2,6855	57,3	114,3
2,686	26,1	-0,3
2,6865	-1,4	-106,2
2,687	-24,7	-201,4
2,6875	-45,9	-287,9
2,688	-70,2	-367,2
2,6885	-103,1	-439,1
2,689	-145,4	-500,9
2,6895	-190,7	-546,6
2,69	-228,3	-569,9
2,6905	-249,7	-568,3
2,691	-252,8	-544,8
2,6915	-239,4	-504,4
2,692	-214,1	-449,2
2,6925	-180,5	-377,3
2,693	-140,5	-287,8
2,6935	-94,8	-184,7
2,694	-44,6	-76,5
2,6945	7,5	28,1
2,695	57,5	124,5
2,6955	102,0	212,7
2,696	139,0	295,4
2,6965	168,2	375,1
2,697	190,5	450,3
2,6975	206,8	514,4
2,698	217,3	558,3
2,6985	220,2	575,9
2,699	214,6	567,8
2,6995	200,8	539,4
2,7	180,4	495,1
2,7005	154,8	435,3
2,701	124,7	357,9
2,7015	90,7	263,3
2,702	55,2	157,6
2,7025	20,7	49,9
2,703	-10,6	-52,8
2,7035	-38,1	-148,0
2,704	-62,9	-236,8
2,7045	-85,3	-319,6
2,705	-105,3	-395,5
2,7055	-122,2	-462,0
2,706	-135,4	-514,3
2,7065	-144,4	-546,0
2,707	-148,2	-552,9
2,7075	-146,0	-536,3
2,708	-137,6	-501,4
2,7085	-123,4	-451,7
2,709	-104,3	-387,0
2,7095	-80,8	-305,4
2,71	-53,8	-209,5
2,7105	-24,7	-106,6
2,711	5,3	-5,4
2,7115	34,7	88,5
2,712	62,6	174,6
2,7125	88,8	255,6
2,713	113,4	334,5
2,7135	136,7	411,9
2,714	158,3	482,8
2,7145	176,6	538,0
2,715	189,8	568,6
2,7155	196,2	571,7
2,716	193,9	550,6
2,7165	180,9	510,8
2,717	156,9	454,9
2,7175	124,5	381,5
2,718	88,0	289,9
2,7185	51,2	184,3
2,719	16,3	73,2
2,7195	-15,4	-34,6
2,72	-42,8	-134,7
2,7205	-65,8	-226,7
2,721	-85,1	-311,8
2,7215	-102,0	-389,9
2,722	-117,3	-459,4
2,7225	-131,3	-516,3
2,723	-143,0	-554,5
2,7235	-150,6	-568,6
2,724	-153,6	-558,1
2,7245	-153,0	-527,5
2,725	-150,0	-481,4
2,7255	-144,4	-420,4
2,726	-134,6	-342,2
2,7265	-118,5	-246,8
2,727	-96,0	-139,9
2,7275	-69,1	-31,5
2,728	-40,6	70,1
2,7285	-12,3	161,0
2,729	15,1	242,9
2,7295	42,2	320,2
2,73	69,8	395,8
2,7305	98,2	467,3
2,731	126,4	526,4
2,7315	151,4	563,6
2,732	169,9	574,1
2,7325	180,3	559,6
2,733	182,5	525,8
2,7335	177,9	476,4
2,734	167,1	410,8
2,7345	149,9	327,1
2,735	126,3	227,4
2,7355	97,8	119,0
2,736	66,6	11,0
2,7365	34,7	-90,8
2,737	2,9	-185,4
2,7375	-28,4	-273,6
2,738	-58,4	-355,5
2,7385	-86,5	-429,9
2,739	-111,8	-493,2
2,7395	-132,8	-539,3
2,74	-147,0	-562,5
2,7405	-152,5	-560,2
2,741	-149,3	-535,8
2,7415	-139,8	-494,6
2,742	-126,3	-438,7
2,7425	-109,7	-366,2
2,743	-89,1	-275,8
2,7435	-63,6	-171,8
2,744	-33,8	-63,4
2,7445	-2,1	40,3
2,745	29,3	134,6
2,7455	59,0	220,0
2,746	86,9	300,3
2,7465	113,9	378,4
2,747	140,1	453,8
2,7475	164,2	519,8
2,748	183,2	566,5
2,7485	194,3	586,6
2,749	196,6	579,2
2,7495	191,0	549,4
2,75	179,6	502,6
2,7505	163,6	440,3
2,751	142,9	360,4
2,7515	117,2	262,6
2,752	87,0	152,5
2,7525	54,7	39,9
2,753	22,9	-66,7
2,7535	-6,9	-164,0
2,754	-34,7	-253,1
2,7545	-61,8	-335,2
2,755	-90,0	-410,6
2,7555	-119,9	-477,3
2,756	-150,5	-530,3
2,7565	-178,3	-562,7
2,757	-200,0	-569,9
2,7575	-213,1	-553,3
2,758	-216,8	-517,9
2,7585	-211,4	-467,3
2,759	-197,2	-401,3
2,7595	-174,3	-318,0
2,76	-143,6	-219,3
2,7605	-106,8	-112,1
2,761	-66,8	-5,5
2,7615	-26,4	93,5
2,762	12,6	183,2
2,7625	49,6	265,8
2,763	85,3	345,2
2,7635	119,7	422,4
2,764	151,4	492,8
2,7645	177,7	547,1
2,765	195,5	576,8
2,7655	203,6	578,8
2,766	202,6	556,6
2,7665	194,5	515,4
2,767	180,6	458,1
2,7675	161,3	384,0
2,768	136,3	292,8
2,7685	106,5	188,5
2,769	73,8	79,3
2,7695	41,3	-26,5
2,77	11,2	-124,5
2,7705	-16,3	-214,8
2,771	-42,1	-299,1
2,7715	-66,8	-377,7
2,772	-90,3	-449,0
2,7725	-111,1	-508,2
2,773	-127,0	-548,1
2,7735	-136,1	-562,9
2,774	-138,2	-552,6
2,7745	-134,9	-522,1
2,775	-127,9	-476,3
2,7755	-117,7	-415,7
2,776	-103,3	-338,2
2,7765	-84,2	-244,3
2,777	-60,7	-140,2
2,7775	-34,6	-35,3
2,778	-7,7	63,0
2,7785	18,3	152,1
2,779	43,0	234,3
2,7795	66,8	313,2
2,78	89,9	390,3
2,7805	112,3	462,0
2,781	132,3	519,6
2,7815	147,5	553,8
2,782	155,8	560,7
2,7825	155,9	543,6
2,783	148,1	509,4
2,7835	133,7	461,7
2,784	114,6	398,9
2,7845	91,6	318,1
2,785	65,3	220,6
2,7855	36,9	113,6
2,786	8,4	6,7
2,7865	-18,4	-94,2
2,787	-43,1	-187,7
2,7875	-66,1	-274,7
2,788	-87,6	-355,9
2,7885	-107,2	-430,3
2,789	-124,2	-495,0
2,7895	-137,3	-544,0
2,79	-145,2	-570,5
2,7905	-147,0	-570,9
2,791	-143,2	-548,0
2,7915	-134,4	-507,2
2,792	-121,1	-451,0
2,7925	-103,1	-378,1
2,793	-80,6	-287,7
2,7935	-54,7	-183,7
2,794	-28,1	-74,8
2,7945	-3,5	29,6
2,795	18,1	124,2
2,7955	37,8	209,0
2,796	55,4	287,7
2,7965	68,2	363,9
2,797	73,1	437,3
2,7975	70,6	502,2
2,798	65,3	548,8
2,7985	62,2	570,2
2,799	63,7	565,7
2,7995	69,8	539,9
2,8	78,9	497,8
2,8005	88,6	440,0
2,801	96,3	364,3
2,8015	99,8	270,7
2,802	97,7	164,6
2,8025	89,5	55,2
2,803	75,8	-50,0
2,8035	57,3	-147,7
2,804	34,8	-237,9
2,8045	8,8	-321,3
2,805	-19,8	-397,3
2,8055	-49,5	-464,1
2,806	-78,0	-516,7
2,8065	-102,3	-548,7
2,807	-120,0	-555,8
2,8075	-130,3	-539,4
2,808	-133,6	-505,0
2,8085	-131,4	-456,3
2,809	-124,8	-392,6
2,8095	-112,8	-311,8
2,81	-93,2	-215,2
2,8105	-64,8	-109,4
2,811	-30,0	-3,7
2,8115	6,6	94,9
2,812	39,7	184,1
2,8125	66,2	265,7
2,813	86,4	343,4
2,8135	102,9	418,0
2,814	117,9	484,4
2,8145	131,5	533,7
2,815	141,7	558,3
2,8155	147,1	556,7
2,816	147,4	533,5
2,8165	143,2	494,1
2,817	135,3	440,1
2,8175	123,7	369,8
2,818	107,8	282,1
2,8185	87,1	180,7
2,819	62,4	73,8
2,8195	35,3	-30,7
2,82	8,0	-128,5
2,8205	-18,8	-219,4
2,821	-45,7	-304,2
2,8215	-72,7	-382,7
2,822	-98,8	-453,4
2,8225	-122,1	-512,3
2,823	-140,4	-553,1
2,8235	-152,2	-570,0
2,824	-157,0	-562,2
2,8245	-155,1	-533,5
2,825	-147,1	-488,5
2,8255	-133,5	-427,9
2,826	-114,4	-350,1
2,8265	-89,8	-255,1
2,827	-60,7	-148,8
2,8275	-30,0	-40,5
2,828	-1,9	61,9
2,8285	20,4	154,3
2,829	36,9	237,9
2,8295	50,2	316,5
2,83	63,9	392,7
2,8305	79,4	464,3
2,831	95,7	523,4
2,8315	110,5	561,2
2,832	121,8	572,6
2,8325	129,0	559,5
2,833	132,9	527,2
2,8335	133,8	479,1
2,834	130,8	414,5
2,8345	122,1	331,1
2,835	106,1	230,7
2,8355	82,4	120,7
2,836	51,3	10,9
2,8365	13,5	-92,2
2,837	-28,3	-187,0
2,8375	-69,4	-274,3
2,838	-105,4	-354,7
2,8385	-134,0	-427,3
2,839	-154,8	-489,4
2,8395	-167,8	-535,5
2,84	-172,7	-559,3
2,8405	-169,8	-558,1
2,841	-160,0	-534,7
2,8415	-144,7	-494,1
2,842	-125,1	-438,8
2,8425	-101,9	-367,3
2,843	-75,0	-278,3
2,8435	-44,7	-175,5
2,844	-12,3	-67,0
2,8445	20,4	38,0
2,845	51,3	134,0
2,8455	79,0	220,4
2,846	103,4	300,3
2,8465	125,3	377,4
2,847	145,4	451,0
2,8475	163,5	514,6
2,848	177,9	558,8
2,8485	186,6	577,6
2,849	188,4	571,0
2,8495	183,6	543,9
2,85	173,3	500,4
2,8505	158,9	440,4
2,851	140,7	361,4
2,8515	118,4	264,1
2,852	91,8	154,8
2,8525	61,4	43,6
2,853	29,3	-61,8
2,8535	-2,6	-158,8
2,854	-32,3	-248,2
2,8545	-58,4	-331,1
2,855	-80,8	-407,1
2,8555	-100,3	-473,8
2,856	-117,6	-526,8
2,8565	-132,2	-559,7
2,857	-142,6	-568,1
2,8575	-147,2	-553,1
2,858	-145,7	-519,3
2,8585	-138,6	-470,3
2,859	-125,8	-405,4
2,8595	-107,1	-322,5
2,86	-82,8	-223,2
2,8605	-54,2	-114,9
2,861	-23,7	-7,3
2,8615	6,1	92,3
2,862	33,5	181,5
2,8625	58,1	263,0
2,863	79,8	340,9
2,8635	99,1	416,8
2,864	116,0	486,4
2,8645	130,0	540,5
2,865	139,8	570,6
2,8655	143,3	573,8
2,866	139,0	553,7
2,8665	127,6	516,1
2,867	111,1	463,7
2,8675	90,9	394,6
2,868	66,9	307,2
2,8685	39,8	204,9
2,869	11,4	96,1
2,8695	-15,9	-10,5
2,87	-40,1	-110,1
2,8705	-60,7	-201,9
2,871	-78,3	-286,8
2,8715	-93,8	-365,0
2,872	-108,0	-435,4
2,8725	-120,3	-494,5
2,873	-128,7	-536,2
2,8735	-131,4	-554,1
2,874	-128,7	-546,8
2,8745	-123,0	-518,7
2,875	-117,0	-474,9
2,8755	-111,1	-416,4
2,876	-103,3	-341,4
2,8765	-90,7	-250,4
2,877	-71,3	-149,3
2,8775	-45,4	-46,8
2,878	-15,3	50,2
2,8785	15,9	139,1
2,879	45,8	221,5
2,8795	73,8	300,8
2,88	100,6	379,0
2,8805	126,7	453,3
2,881	151,2	515,3
2,8815	171,2	555,6
2,882	183,4	569,1
2,8825	185,8	557,6
2,883	179,0	526,6
2,8835	165,3	479,6
2,884	146,9	415,7
2,8845	124,6	332,9
2,885	98,5	232,9
2,8855	69,7	123,5
2,886	39,9	14,3
2,8865	10,9	-88,6
2,887	-16,4	-183,6
2,8875	-42,1	-272,0
2,888	-66,7	-354,2
2,8885	-90,1	-428,8
2,889	-111,2	-492,6
2,8895	-128,0	-540,0
2,89	-138,4	-564,8
2,8905	-141,5	-564,7
2,891	-138,3	-543,1
2,8915	-130,8	-505,5
2,892	-120,0	-453,8
2,8925	-105,5	-385,1
2,893	-86,3	-297,4
2,8935	-62,1	-194,3
2,894	-33,8	-84,8
2,8945	-3,4	21,4
2,895	26,6	118,6
2,8955	54,3	205,8
2,896	79,1	286,4
2,8965	101,9	363,8
2,897	123,7	438,0
2,8975	143,9	502,9
2,898	160,9	549,4
2,8985	172,3	570,3
2,899	176,8	564,9
2,8995	174,4	537,6
2,9	165,9	493,4
2,9005	151,4	433,7
2,901	130,6	356,9
2,9015	103,8	263,1
2,902	72,3	157,7
2,9025	38,7	49,4
2,903	5,5	-54,3
2,9035	-25,3	-150,9
2,904	-52,6	-241,3
2,9045	-76,1	-326,2
2,905	-96,7	-404,3
2,9055	-115,8	-472,9
2,906	-133,5	-527,3
2,9065	-148,8	-561,2
2,907	-162,0	-570,6
2,9075	-175,8	-556,6
2,908	-192,4	-524,1
2,9085	-209,0	-476,4
2,909	-217,9	-412,7
2,9095	-211,8	-330,6
2,91	-188,3	-231,3
2,9105	-149,8	-121,8
2,911	-101,4	-12,1
2,9115	-48,8	89,7
2,912	3,5	180,5
2,9125	53,2	262,2
2,913	99,9	338,9
2,9135	143,6	413,1
2,914	183,4	481,6
2,9145	216,5	535,7
2,915	239,5	566,4
2,9155	250,0	570,2
2,916	247,6	550,4
2,9165	234,8	512,8
2,917	214,4	459,9
2,9175	188,7	390,3
2,918	158,2	302,1
2,9185	123,3	199,0
2,919	85,3	89,3
2,9195	45,5	-18,1
2,92	5,7	-118,2
2,9205	-32,3	-210,7
2,921	-66,5	-297,0
2,9215	-95,3	-377,3
2,922	-118,9	-449,9
2,9225	-138,7	-510,5
2,923	-154,9	-552,3
2,9235	-166,4	-569,6
2,924	-171,6	-561,3
2,9245	-170,1	-531,9
2,925	-162,7	-486,7
2,9255	-150,5	-426,9
2,926	-134,5	-350,6
2,9265	-115,9	-257,4
2,927	-96,2	-152,1
2,9275	-76,2	-43,5
2,928	-56,4	59,4
2,9285	-37,5	152,5
2,929	-19,5	236,5
2,9295	-1,2	315,7
2,93	19,7	392,8
2,9305	44,2	465,9
2,931	71,5	527,2
2,9315	98,8	567,3
2,932	122,3	580,7
2,9325	138,9	568,2
2,933	147,5	534,8
2,9335	148,4	484,4
2,934	142,1	417,1
2,9345	129,3	331,8
2,935	110,9	230,8
2,9355	88,7	121,3
2,936	64,3	12,4
2,9365	38,8	-90,0
2,937	12,4	-184,4
2,9375	-14,2	-271,9
2,938	-39,6	-353,3
2,9385	-62,8	-428,0
2,939	-83,7	-492,8
2,9395	-102,4	-541,8
2,94	-118,3	-568,4
2,9405	-129,7	-569,5
2,941	-135,4	-547,9
2,9415	-134,9	-509,1
2,942	-128,1	-456,0
2,9425	-115,0	-386,9
2,943	-96,7	-300,1
2,9435	-75,9	-198,2
2,944	-55,4	-89,2
2,9445	-36,0	17,5
2,945	-16,1	115,7
2,9455	5,9	204,2
2,946	30,7	285,8
2,9465	58,1	364,3
2,947	87,3	439,6
2,9475	116,5	506,5
2,948	143,0	555,6
2,9485	164,1	579,5
2,949	178,4	576,8
2,9495	185,5	552,1
2,95	186,0	510,2
2,9505	179,8	452,4
2,951	166,3	376,6
2,9515	145,5	282,7
2,952	117,9	175,9
2,9525	85,1	65,4
2,953	49,2	-41,1
2,9535	12,8	-140,5
2,954	-22,1	-232,8
2,9545	-54,4	-318,9
2,955	-84,3	-398,0
2,9555	-112,0	-468,2
2,956	-137,3	-524,8
2,9565	-158,6	-561,7
2,957	-173,6	-574,3
2,9575	-180,4	-563,0
2,958	-178,0	-531,8
2,9585	-167,1	-484,1
2,959	-148,9	-419,4
2,9595	-124,5	-336,0
2,96	-94,8	-235,5
2,9605	-61,4	-125,5
2,961	-26,5	-16,1
2,9615	7,3	85,5
2,962	38,9	177,3
2,9625	67,8	261,7
2,963	94,2	342,4
2,9635	118,6	420,2
2,964	140,6	490,9
2,9645	158,4	545,9
2,965	169,7	576,8
2,9655	173,1	580,8
2,966	169,4	561,1
2,9665	160,1	523,0
2,967	146,6	469,2
2,9675	129,5	398,4
2,968	108,6	309,6
2,9685	83,8	206,0
2,969	55,6	95,5
2,9695	25,2	-13,2
2,97	-6,8	-115,2
2,9705	-40,1	-209,7
2,971	-75,1	-297,6
2,9715	-110,5	-378,3
2,972	-144,0	-450,0
2,9725	-172,6	-509,3
2,973	-194,0	-550,5
2,9735	-207,9	-568,1
2,974	-214,9	-560,7
2,9745	-215,5	-532,2
2,975	-209,6	-487,4
2,9755	-196,8	-427,5
2,976	-176,7	-350,8
2,9765	-148,9	-257,1
2,977	-114,0	-151,2
2,9775	-74,2	-42,1
2,978	-33,2	61,9
2,9785	5,4	156,1
2,979	40,2	240,7
2,9795	71,6	319,3
2,98	100,7	394,5
2,9805	128,1	464,6
2,981	153,0	523,0
2,9815	173,1	561,5
2,982	186,2	575,3
2,9825	191,2	565,2
2,983	188,3	535,8
2,9835	178,2	490,4
2,984	162,1	428,4
2,9845	141,1	347,8
2,985	116,7	249,7
2,9855	90,4	139,9
2,986	63,6	27,1
2,9865	35,6	-82,1
2,987	5,3	-184,1
2,9875	-27,9	-277,7
2,988	-62,2	-362,2
2,9885	-94,6	-436,8
2,989	-122,5	-499,9
2,9895	-144,3	-547,1
2,99	-159,0	-572,8
2,9905	-166,2	-573,8
2,991	-167,0	-552,3
2,9915	-163,2	-513,4
2,992	-156,0	-459,8
2,9925	-144,7	-390,0
2,993	-127,2	-302,2
2,9935	-102,2	-199,4
2,994	-70,8	-90,1
2,9945	-36,1	16,5
2,995	-1,7	114,5
2,9955	30,6	203,0
2,996	60,2	285,1
2,9965	87,9	364,3
2,997	114,6	440,5
2,9975	139,9	508,1
2,998	162,1	557,5
2,9985	179,0	581,5
2,999	189,0	578,8
2,9995	191,8	554,3
3	187,9	513,2
3,0005	177,7	456,5
3,001	161,5	381,7
3,0015	139,3	287,8
3,002	112,0	179,3
3,0025	80,7	65,0
3,003	47,7	-46,3
3,0035	15,2	-150,1
3,004	-15,3	-245,1
3,0045	-43,3	-331,7
3,005	-68,9	-409,5
3,0055	-92,2	-477,0
3,006	-112,7	-530,3
3,0065	-129,0	-563,6
3,007	-139,7	-572,6
3,0075	-143,4	-558,1
3,008	-140,6	-525,2
3,0085	-131,9	-477,4
3,009	-117,8	-414,0
3,0095	-98,5	-333,0
3,01	-74,7	-235,9
3,0105	-48,0	-129,9
3,011	-20,0	-24,2
3,0115	7,6	74,5
3,012	34,3	163,8
3,0125	59,8	246,1
3,013	83,5	325,4
3,0135	101,8	403,2
3,014	109,9	475,4
3,0145	105,9	532,8
3,015	92,7	566,1
3,0155	76,7	571,6
3,016	63,5	552,5
3,0165	55,6	514,8
3,017	53,0	461,6
3,0175	53,3	392,2
3,018	54,0	305,2
3,0185	52,8	203,8
3,019	48,9	96,3
3,0195	42,0	-9,1
3,02	31,7	-107,5
3,0205	17,7	-198,8
3,021	-0,3	-284,0
3,0215	-21,7	-363,2
3,022	-45,4	-434,8
3,0225	-69,3	-495,0
3,023	-90,3	-537,5
3,0235	-105,7	-556,8
3,024	-114,2	-551,8
3,0245	-116,3	-526,7
3,025	-114,0	-486,4
3,0255	-108,3	-431,4
3,026	-99,0	-358,9
3,0265	-85,2	-267,9
3,027	-65,6	-164,1
3,0275	-39,5	-57,3
3,028	-8,5	43,7
3,0285	24,4	135,4
3,029	56,2	219,2
3,0295	85,8	299,4
3,03	113,5	378,4
3,0305	139,7	454,0
3,031	163,3	518,3
3,0315	181,7	561,2
3,032	192,0	577,2
3,0325	193,1	567,1
3,033	186,0	536,3
3,0335	172,8	488,4
3,034	154,9	423,5
3,0345	132,1	340,0
3,035	103,4	239,5
3,0355	68,5	129,5
3,036	29,0	19,6
3,0365	-12,1	-83,4
3,037	-52,1	-178,5
3,0375	-89,2	-267,1
3,038	-122,2	-350,3
3,0385	-150,6	-426,6
3,039	-175,0	-492,9
3,0395	-195,8	-543,1
3,04	-212,0	-570,6
3,0405	-221,4	-572,3
3,041	-221,7	-550,8
3,0415	-212,2	-511,8
3,042	-193,5	-458,2
3,0425	-167,0	-388,1
3,043	-133,9	-299,6
3,0435	-96,0	-195,8
3,044	-55,4	-85,3
3,0445	-14,6	22,3
3,045	24,3	120,4
3,0455	59,9	207,9
3,046	92,6	288,2
3,0465	122,9	365,5
3,047	151,1	440,5
3,0475	176,0	507,5
3,048	195,1	556,9
3,0485	206,1	581,2
3,049	208,3	579,0
3,0495	202,8	554,5
3,05	192,0	512,5
3,0505	177,1	454,4
3,051	158,2	378,3
3,0515	134,6	284,0
3,052	106,5	177,0
3,0525	75,6	66,7
3,053	43,8	-39,2
3,0535	12,0	-137,6
3,054	-19,4	-229,4
3,0545	-50,0	-315,1
3,055	-78,7	-393,8
3,0555	-104,4	-463,1
3,056	-125,7	-518,7
3,0565	-141,6	-554,5
3,057	-151,2	-565,9
3,0575	-154,1	-553,3
3,058	-151,2	-521,5
3,0585	-144,0	-474,3
3,059	-133,9	-411,7
3,0595	-120,9	-332,0
3,06	-103,8	-236,9
3,0605	-81,8	-133,2
3,061	-55,4	-29,6
3,0615	-26,4	67,9
3,062	3,2	157,7
3,0625	32,4	241,8
3,063	61,1	323,0
3,0635	89,4	402,0
3,064	117,3	474,5
3,0645	142,7	532,1
3,065	162,9	566,0
3,0655	175,7	572,6
3,066	180,5	554,7
3,0665	177,9	517,7
3,067	169,1	464,6
3,0675	154,5	394,4
3,068	134,1	305,8
3,0685	108,6	202,3
3,069	79,4	92,0
3,0695	48,2	-15,7
3,07	17,0	-115,8
3,0705	-13,4	-208,2
3,071	-42,5	-294,4
3,0715	-70,2	-374,8
3,072	-96,2	-447,7
3,0725	-120,1	-508,9
3,073	-142,4	-552,0
3,0735	-164,4	-571,2
3,074	-185,8	-565,0
3,0745	-203,8	-537,4
3,075	-213,9	-493,5
3,0755	-213,0	-434,6
3,076	-199,8	-358,6
3,0765	-175,1	-264,9
3,077	-140,5	-158,4
3,0775	-99,4	-48,1
3,078	-55,7	57,2
3,0785	-12,9	152,6
3,079	26,9	238,3
3,0795	63,3	318,4
3,08	96,8	396,2
3,0805	127,4	470,3
3,081	153,2	533,4
3,0815	170,9	576,2
3,082	178,3	592,5
3,0825	176,2	582,9
3,083	166,9	552,3
3,0835	152,1	504,7
3,084	131,2	440,2
3,0845	102,9	356,5
3,085	68,3	254,8
3,0855	31,7	142,2
3,086	-2,3	28,8
3,0865	-31,8	-78,2
3,087	-57,5	-177,2
3,0875	-80,8	-269,4
3,088	-101,5	-355,7
3,0885	-118,5	-434,5
3,089	-131,2	-502,4
3,0895	-139,9	-553,8
3,09	-144,5	-582,2
3,0905	-144,5	-584,5
3,091	-139,2	-563,3
3,0915	-128,6	-523,9
3,092	-113,6	-469,5
3,0925	-94,8	-399,0
3,093	-72,7	-310,8
3,0935	-47,2	-208,0
3,094	-18,7	-98,8
3,0945	11,7	7,3
3,095	42,2	104,3
3,0955	71,5	191,3
3,096	99,4	272,0
3,0965	126,1	350,2
3,097	151,7	426,3
3,0975	175,6	494,4
3,098	196,2	544,9
3,0985	211,7	570,0
3,099	220,2	568,3
3,0995	221,1	544,1
3,1	214,5	502,5
3,1005	200,7	445,1
3,101	180,2	369,9
3,1015	153,5	276,8
3,102	121,7	171,0
3,1025	86,9	61,6
3,103	51,6	-43,3
3,1035	17,2	-141,1
3,104	-15,5	-232,5
3,1045	-46,3	-318,5
3,105	-74,9	-398,1
3,1055	-100,9	-468,8
3,106	-123,7	-525,3
3,1065	-141,6	-561,2
3,107	-153,2	-571,7
3,1075	-157,8	-557,5
3,108	-155,9	-524,0
3,1085	-148,3	-475,7
3,109	-135,3	-412,5
3,1095	-116,9	-331,9
3,11	-93,2	-234,6
3,1105	-65,4	-127,1
3,111	-36,2	-19,0
3,1115	-7,9	82,0
3,112	18,3	173,1
3,1125	42,4	256,3
3,113	65,5	335,5
3,1135	88,6	412,7
3,114	112,0	484,5
3,1145	134,7	542,4
3,115	154,2	577,6
3,1155	167,6	586,1
3,116	173,4	570,1
3,1165	172,0	534,8
3,117	164,7	483,0
3,1175	151,9	413,5
3,118	132,5	325,2
3,1185	105,9	221,4
3,119	73,5	110,7
3,1195	38,4	2,1
3,12	1,3	-99,3
3,1205	-40,2	-192,8
3,121	-88,2	-279,8
3,1215	-139,8	-360,8
3,122	-188,2	-435,1
3,1225	-225,8	-499,3
3,123	-247,8	-547,1
3,1235	-252,4	-571,5
3,124	-240,1	-570,2
3,1245	-213,6	-546,4
3,125	-176,4	-505,2
3,1255	-132,4	-447,9
3,126	-85,6	-372,9
3,1265	-39,8	-279,9
3,127	2,6	-174,2
3,1275	39,6	-65,1
3,128	69,7	38,8
3,1285	91,8	132,9
3,129	106,5	218,2
3,1295	116,4	298,1
3,13	125,2	375,4
3,1305	135,5	448,7
3,131	147,1	511,0
3,1315	158,0	553,0
3,132	165,4	568,9
3,1325	167,3	559,8
3,133	162,8	530,6
3,1335	153,6	485,3
3,134	141,5	423,3
3,1345	127,6	342,7
3,135	110,7	244,6
3,1355	89,7	136,5
3,136	65,1	28,0
3,1365	38,5	-73,9
3,137	11,3	-167,8
3,1375	-16,0	-254,9
3,138	-43,3	-336,0
3,1385	-70,3	-410,1
3,139	-95,6	-474,0
3,1395	-117,0	-522,2
3,14	-132,1	-548,4
3,1405	-139,8	-549,3
3,141	-141,5	-527,6
3,1415	-140,8	-488,6
3,142	-140,5	-435,6
3,1425	-139,8	-367,2
3,143	-135,0	-281,3
3,1435	-121,9	-180,7
3,144	-99,4	-73,9
3,1445	-69,4	29,0
3,145	-35,1	121,9
3,1455	0,4	204,5
3,146	35,3	281,6
3,1465	69,1	357,7
3,147	101,7	433,5
3,1475	132,3	502,6
3,148	159,0	554,3
3,1485	179,5	579,5
3,149	192,0	576,5
3,1495	196,1	549,8
3,15	192,4	504,9
3,1505	181,9	444,1
3,151	165,2	366,5
3,1515	142,2	272,2
3,152	113,9	166,3
3,1525	82,4	57,5
3,153	50,1	-46,4
3,1535	18,4	-141,9
3,154	-12,3	-229,9
3,1545	-42,4	-312,1
3,155	-71,8	-388,5
3,1555	-99,4	-457,1
3,156	-123,9	-513,0
3,1565	-143,2	-549,5
3,157	-155,4	-561,6
3,1575	-159,5	-549,4
3,158	-155,6	-517,8
3,1585	-144,8	-471,1
3,159	-127,6	-409,4
3,1595	-104,3	-330,2
3,16	-76,1	-234,2
3,1605	-45,2	-127,8
3,161	-14,2	-20,4
3,1615	14,6	80,4
3,162	40,4	171,8
3,1625	63,9	255,6
3,163	86,8	335,5
3,1635	110,7	413,1
3,164	135,1	484,8
3,1645	157,7	542,0
3,165	175,3	575,6
3,1655	185,8	581,7
3,166	188,9	563,1
3,1665	185,3	525,8
3,167	175,8	473,2
3,1675	160,9	404,3
3,168	140,5	317,6
3,1685	114,9	216,0
3,169	85,3	107,2
3,1695	53,7	-0,1
3,17	21,8	-101,2
3,1705	-9,4	-195,9
3,171	-39,6	-286,0
3,1715	-68,3	-371,3
3,172	-95,2	-449,3
3,1725	-119,1	-514,8
3,173	-138,9	-560,3
3,1735	-153,3	-580,2
3,174	-161,0	-573,4
3,1745	-161,7	-544,8
3,175	-156,6	-500,1
3,1755	-147,8	-441,2
3,176	-136,2	-366,1
3,1765	-120,3	-273,8
3,177	-98,8	-168,8
