Interval=	0,0005 s
ExcelDateTime=	4,5909500133228459e+004	9/09/2025 12:00:11,510938
TimeFormat=	StartOfBlock
DateFormat=	
ChannelTitle=	Biceps	Triceps
Range=	1000,0 µV	1000,0 µV
0	-0,2	-0,0
0,0005	-2,7	-0,3
0,001	-10,0	-0,9
0,0015	-22,2	-1,8
0,002	-36,3	-1,9
0,0025	-48,7	-0,4
0,003	-58,0	3,2
0,0035	-64,6	8,2
0,004	-69,2	13,2
0,0045	-72,4	16,4
0,005	-74,5	16,8
0,0055	-74,9	14,6
0,006	-72,8	10,9
0,0065	-67,5	7,3
0,007	-60,0	5,0
0,0075	-52,5	4,3
0,008	-46,8	5,0
0,0085	-42,9	6,3
0,009	-39,4	7,4
0,0095	-35,3	7,6
0,01	-30,7	6,5
0,0105	-25,4	4,3
0,011	-19,6	1,8
0,0115	-13,1	-0,3
0,012	-6,7	-2,0
0,0125	-1,7	-3,4
0,013	1,3	-4,3
0,0135	2,6	-4,5
0,014	2,2	-3,9
0,0145	-0,3	-2,8
0,015	-5,0	-1,4
0,0155	-11,0	-0,6
0,016	-16,5	-0,8
0,0165	-20,1	-1,8
0,017	-21,5	-2,7
0,0175	-21,7	-2,9
0,018	-22,3	-2,3
0,0185	-24,7	-1,0
0,019	-29,1	0,9
0,0195	-34,5	3,4
0,02	-39,8	6,2
0,0205	-44,0	8,8
0,021	-46,8	10,8
0,0215	-47,5	12,0
0,022	-46,1	12,5
0,0225	-43,1	12,4
0,023	-39,1	11,3
0,0235	-34,8	9,3
0,024	-30,8	7,4
0,0245	-27,6	6,7
0,025	-24,8	7,6
0,0255	-22,1	9,3
0,026	-19,4	10,9
0,0265	-16,9	10,9
0,027	-14,7	8,7
0,0275	-12,7	4,2
0,028	-10,8	-1,4
0,0285	-8,9	-6,7
0,029	-7,3	-10,4
0,0295	-6,6	-12,3
0,03	-7,5	-12,7
0,0305	-10,3	-12,4
0,031	-14,6	-11,5
0,0315	-19,6	-9,6
0,032	-24,2	-6,7
0,0325	-27,4	-3,7
0,033	-29,2	-1,5
0,0335	-29,7	-0,4
0,034	-29,2	-0,4
0,0345	-27,6	-1,3
0,035	-25,4	-2,6
0,0355	-23,9	-3,6
0,036	-24,2	-3,8
0,0365	-26,4	-3,0
0,037	-30,0	-1,3
0,0375	-34,2	0,7
0,038	-38,1	2,7
0,0385	-41,0	4,0
0,039	-42,8	4,2
0,0395	-43,3	3,2
0,04	-42,7	1,4
0,0405	-41,9	-0,3
0,041	-41,4	-1,0
0,0415	-41,4	-0,3
0,042	-41,9	1,2
0,0425	-42,5	2,6
0,043	-43,0	3,2
0,0435	-42,8	2,6
0,044	-41,6	0,9
0,0445	-39,4	-1,6
0,045	-36,4	-4,3
0,0455	-33,3	-6,9
0,046	-30,8	-8,7
0,0465	-29,5	-9,4
0,047	-29,7	-8,8
0,0475	-31,3	-6,8
0,048	-34,3	-3,4
0,0485	-38,3	0,8
0,049	-42,5	4,7
0,0495	-46,6	7,5
0,05	-50,8	9,2
0,0505	-55,2	10,0
0,051	-59,8	10,3
0,0515	-64,1	10,3
0,052	-68,6	10,8
0,0525	-73,5	11,8
0,053	-78,7	13,3
0,0535	-83,4	14,9
0,054	-87,2	16,6
0,0545	-89,6	17,5
0,055	-90,4	17,5
0,0555	-89,5	16,8
0,056	-87,1	15,7
0,0565	-84,3	14,1
0,057	-82,9	11,5
0,0575	-84,0	8,3
0,058	-87,1	5,6
0,0585	-91,0	4,2
0,059	-94,4	4,2
0,0595	-97,2	5,1
0,06	-98,9	6,5
0,0605	-99,3	7,8
0,061	-98,9	8,3
0,0615	-98,0	8,0
0,062	-97,0	7,0
0,0625	-95,8	5,9
0,063	-94,7	5,1
0,0635	-94,6	4,6
0,064	-96,1	4,7
0,0645	-99,6	5,6
0,065	-103,8	7,4
0,0655	-107,0	10,1
0,066	-107,6	12,8
0,0665	-106,1	14,8
0,067	-103,8	15,5
0,0675	-101,1	15,0
0,068	-97,5	13,4
0,0685	-93,1	11,0
0,069	-89,2	8,9
0,0695	-87,8	8,0
0,07	-89,8	9,0
0,0705	-94,4	11,7
0,071	-99,8	14,7
0,0715	-105,1	16,8
0,072	-109,7	17,1
0,0725	-112,4	15,5
0,073	-112,5	12,1
0,0735	-110,0	7,3
0,074	-106,5	2,4
0,0745	-103,5	-0,9
0,075	-101,3	-1,9
0,0755	-99,7	-0,5
0,076	-98,0	2,4
0,0765	-96,0	6,2
0,077	-93,2	9,7
0,0775	-89,8	12,1
0,078	-86,8	12,7
0,0785	-84,8	11,9
0,079	-84,3	10,6
0,0795	-85,2	9,7
0,08	-86,9	9,7
0,0805	-89,4	10,4
0,081	-93,5	11,0
0,0815	-99,8	10,8
0,082	-107,3	9,7
0,0825	-113,5	7,8
0,083	-117,3	5,9
0,0835	-119,6	4,2
0,084	-122,3	2,3
0,0845	-126,1	-0,2
0,085	-130,6	-2,6
0,0855	-135,1	-4,1
0,086	-139,5	-3,7
0,0865	-143,7	-1,3
0,087	-147,6	2,3
0,0875	-150,8	6,2
0,088	-152,7	9,7
0,0885	-152,7	12,4
0,089	-150,8	13,9
0,0895	-147,3	13,8
0,09	-142,6	12,1
0,0905	-138,1	9,9
0,091	-135,2	8,6
0,0915	-134,1	8,8
0,092	-134,2	10,1
0,0925	-134,6	11,8
0,093	-135,7	13,1
0,0935	-137,6	13,6
0,094	-140,0	13,2
0,0945	-141,9	12,1
0,095	-142,4	10,8
0,0955	-141,4	9,6
0,096	-139,2	8,7
0,0965	-136,6	8,1
0,097	-134,7	7,7
0,0975	-134,8	7,6
0,098	-137,3	8,1
0,0985	-141,2	9,4
0,099	-144,5	10,9
0,0995	-146,0	12,0
0,1	-146,1	11,9
0,1005	-146,1	10,8
0,101	-147,1	8,3
0,1015	-149,8	5,0
0,102	-154,3	1,7
0,1025	-160,3	-0,5
0,103	-166,7	-0,9
0,1035	-172,6	0,1
0,104	-177,0	1,7
0,1045	-179,2	3,0
0,105	-178,8	3,7
0,1055	-176,4	3,8
0,106	-172,6	3,6
0,1065	-168,2	2,9
0,107	-163,9	1,8
0,1075	-160,9	0,7
0,108	-159,4	0,1
0,1085	-158,4	0,3
0,109	-156,9	0,6
0,1095	-154,4	0,5
0,11	-151,2	-0,5
0,1105	-147,5	-2,8
0,111	-144,2	-6,3
0,1115	-141,9	-10,5
0,112	-140,9	-14,3
0,1125	-140,8	-17,0
0,113	-141,1	-18,6
0,1135	-141,8	-19,3
0,114	-143,3	-19,3
0,1145	-145,8	-18,8
0,115	-149,3	-17,7
0,1155	-152,8	-16,1
0,116	-155,4	-14,7
0,1165	-156,9	-13,8
0,117	-157,8	-13,2
0,1175	-158,4	-12,9
0,118	-159,0	-12,9
0,1185	-160,1	-13,1
0,119	-162,3	-13,2
0,1195	-165,7	-13,1
0,12	-169,5	-12,4
0,1205	-172,6	-11,2
0,121	-173,7	-9,7
0,1215	-171,7	-8,4
0,122	-166,0	-8,0
0,1225	-157,2	-8,7
0,123	-146,4	-10,2
0,1235	-135,4	-12,2
0,124	-126,2	-14,1
0,1245	-120,3	-15,4
0,125	-117,8	-16,2
0,1255	-117,7	-16,6
0,126	-118,4	-16,9
0,1265	-118,5	-17,6
0,127	-116,7	-18,7
0,1275	-113,0	-20,5
0,128	-108,1	-22,7
0,1285	-103,1	-25,0
0,129	-99,4	-27,0
0,1295	-97,8	-28,8
0,13	-99,2	-30,4
0,1305	-103,1	-32,0
0,131	-109,1	-33,4
0,1315	-116,1	-34,0
0,132	-122,5	-33,8
0,1325	-126,7	-33,0
0,133	-128,2	-32,2
0,1335	-127,5	-31,4
0,134	-125,8	-30,1
0,1345	-123,5	-28,0
0,135	-121,3	-24,9
0,1355	-120,1	-20,7
0,136	-120,5	-15,5
0,1365	-122,4	-10,0
0,137	-125,4	-5,0
0,1375	-129,1	-1,8
0,138	-133,1	-0,8
0,1385	-136,6	-2,0
0,139	-138,3	-4,6
0,1395	-137,1	-8,0
0,14	-132,9	-12,3
0,1405	-127,3	-17,1
0,141	-122,0	-22,3
0,1415	-117,8	-27,6
0,142	-114,3	-32,8
0,1425	-110,3	-37,4
0,143	-105,3	-41,0
0,1435	-99,1	-43,7
0,144	-91,5	-46,5
0,1445	-82,7	-50,1
0,145	-73,0	-54,1
0,1455	-63,3	-57,3
0,146	-54,6	-59,0
0,1465	-47,5	-58,9
0,147	-42,2	-57,5
0,1475	-39,3	-55,6
0,148	-39,9	-53,3
0,1485	-44,1	-50,7
0,149	-50,1	-48,4
0,1495	-55,2	-47,0
0,15	-57,8	-46,6
0,1505	-58,0	-46,8
0,151	-57,3	-47,3
0,1515	-56,8	-47,5
0,152	-57,3	-46,9
0,1525	-58,4	-45,3
0,153	-59,6	-42,9
0,1535	-60,8	-40,2
0,154	-61,6	-37,5
0,1545	-62,1	-35,8
0,155	-62,1	-35,8
0,1555	-60,9	-38,0
0,156	-57,8	-42,0
0,1565	-52,1	-46,4
0,157	-45,3	-49,4
0,1575	-39,9	-50,4
0,158	-37,4	-49,3
0,1585	-37,6	-47,1
0,159	-38,8	-44,9
0,1595	-39,7	-43,9
0,16	-39,3	-44,1
0,1605	-37,0	-45,5
0,161	-32,6	-47,4
0,1615	-26,4	-49,8
0,162	-19,3	-52,5
0,1625	-12,2	-55,3
0,163	-6,4	-58,2
0,1635	-2,9	-61,2
0,164	-2,2	-63,8
0,1645	-4,1	-65,6
0,165	-7,3	-65,6
0,1655	-9,6	-64,3
0,166	-8,8	-62,6
0,1665	-4,7	-61,3
0,167	1,2	-60,9
0,1675	7,3	-61,5
0,168	12,7	-62,6
0,1685	17,2	-63,7
0,169	20,4	-64,0
0,1695	22,4	-63,0
0,17	23,6	-61,3
0,1705	24,5	-59,6
0,171	25,6	-58,3
0,1715	27,5	-58,0
0,172	31,1	-58,4
0,1725	37,1	-59,4
0,173	45,8	-60,7
0,1735	56,2	-62,0
0,174	65,6	-63,1
0,1745	72,1	-63,8
0,175	75,6	-64,6
0,1755	77,7	-65,6
0,176	79,9	-67,0
0,1765	83,3	-68,5
0,177	88,1	-70,1
0,1775	94,3	-71,7
0,178	101,8	-73,3
0,1785	110,4	-75,0
0,179	120,1	-76,4
0,1795	129,6	-77,6
0,18	137,1	-78,6
0,1805	140,8	-79,4
0,181	140,3	-79,5
0,1815	136,7	-78,5
0,182	132,1	-76,3
0,1825	128,5	-73,7
0,183	127,1	-71,2
0,1835	127,1	-69,1
0,184	127,3	-67,3
0,1845	127,2	-65,8
0,185	126,7	-64,6
0,1855	125,5	-63,1
0,186	123,0	-60,6
0,1865	119,1	-57,2
0,187	114,2	-52,9
0,1875	109,3	-48,6
0,188	105,2	-44,8
0,1885	102,8	-41,8
0,189	102,3	-40,1
0,1895	103,8	-39,4
0,19	107,1	-39,7
0,1905	110,8	-40,3
0,191	113,9	-40,2
0,1915	116,2	-39,2
0,192	118,4	-37,3
0,1925	121,1	-34,9
0,193	124,0	-32,5
0,1935	127,1	-30,7
0,194	130,4	-29,8
0,1945	133,8	-29,9
0,195	137,3	-30,4
0,1955	140,6	-30,7
0,196	143,1	-30,1
0,1965	144,2	-28,4
0,197	143,0	-25,4
0,1975	138,8	-21,4
0,198	131,8	-16,8
0,1985	122,8	-12,1
0,199	113,7	-8,3
0,1995	105,3	-6,3
0,2	97,8	-6,6
0,2005	91,0	-8,6
0,201	84,8	-11,4
0,2015	79,2	-14,1
0,202	73,9	-15,9
0,2025	68,9	-15,9
0,203	64,4	-14,0
0,2035	61,1	-10,1
0,204	59,5	-5,1
0,2045	60,0	-0,3
0,205	62,3	3,3
0,2055	65,9	5,0
0,206	70,3	4,5
0,2065	75,1	2,3
0,207	79,9	-0,5
0,2075	84,0	-2,5
0,208	86,5	-3,1
0,2085	87,1	-2,9
0,209	86,3	-2,9
0,2095	85,2	-3,5
0,21	84,3	-4,6
0,2105	84,6	-6,1
0,211	85,9	-7,8
0,2115	87,8	-9,4
0,212	89,8	-10,8
0,2125	91,7	-11,4
0,213	93,4	-10,9
0,2135	94,7	-9,2
0,214	95,2	-6,8
0,2145	94,2	-4,1
0,215	91,5	-1,6
0,2155	87,9	0,2
0,216	84,6	1,1
0,2165	82,3	1,2
0,217	80,7	1,4
0,2175	78,8	2,2
0,218	75,8	3,7
0,2185	71,4	5,8
0,219	66,2	8,5
0,2195	61,9	11,9
0,22	59,7	15,9
0,2205	60,0	19,7
0,221	61,7	22,4
0,2215	63,9	23,6
0,222	66,2	23,2
0,2225	68,4	21,2
0,223	70,3	17,7
0,2235	71,5	13,0
0,224	71,4	8,4
0,2245	69,7	5,5
0,225	66,3	4,6
0,2255	61,7	5,4
0,226	57,1	7,3
0,2265	53,2	9,9
0,227	50,1	12,8
0,2275	47,5	15,6
0,228	44,9	17,9
0,2285	42,4	19,6
0,229	40,1	20,8
0,2295	37,7	21,9
0,23	34,8	22,9
0,2305	31,2	23,4
0,231	26,8	23,2
0,2315	21,9	23,2
0,232	17,4	23,6
0,2325	14,6	23,9
0,233	13,8	23,2
0,2335	14,6	21,4
0,234	15,6	19,6
0,2345	16,0	18,9
0,235	15,0	19,3
0,2355	12,2	20,1
0,236	7,7	20,8
0,2365	2,7	21,8
0,237	-2,3	23,4
0,2375	-6,8	25,6
0,238	-10,8	27,4
0,2385	-13,6	28,1
0,239	-14,9	26,9
0,2395	-14,6	23,3
0,24	-13,0	17,4
0,2405	-11,5	10,9
0,241	-11,0	6,2
0,2415	-11,5	4,3
0,242	-11,6	5,2
0,2425	-10,8	8,1
0,243	-8,6	11,9
0,2435	-4,9	15,6
0,244	0,6	18,2
0,2445	7,4	19,2
0,245	14,6	18,7
0,2455	21,4	17,1
0,246	27,7	15,1
0,2465	33,3	13,6
0,247	37,6	13,5
0,2475	39,4	15,3
0,248	38,0	19,3
0,2485	34,2	24,4
0,249	30,2	29,1
0,2495	27,5	32,2
0,25	25,9	33,1
0,2505	23,9	32,4
0,251	20,1	30,8
0,2515	14,3	29,0
0,252	7,1	27,8
0,2525	-0,1	27,7
0,253	-6,6	28,5
0,2535	-12,3	29,9
0,254	-17,5	31,0
0,2545	-22,5	30,9
0,255	-26,7	29,1
0,2555	-29,4	26,0
0,256	-30,0	22,6
0,2565	-28,5	19,3
0,257	-26,0	16,8
0,2575	-24,1	15,6
0,258	-24,0	15,9
0,2585	-25,7	17,3
0,259	-27,9	19,2
0,2595	-29,2	21,3
0,26	-28,1	23,2
0,2605	-23,8	24,4
0,261	-17,3	24,6
0,2615	-10,3	23,8
0,262	-4,8	22,4
0,2625	-1,8	21,1
0,263	-1,2	20,5
0,2635	-2,8	20,7
0,264	-6,7	21,6
0,2645	-12,6	22,7
0,265	-19,7	23,6
0,2655	-26,0	24,1
0,266	-29,9	24,0
0,2665	-30,9	23,6
0,267	-30,2	23,3
0,2675	-29,3	23,3
0,268	-29,4	23,3
0,2685	-30,7	22,9
0,269	-33,2	22,9
0,2695	-36,9	23,7
0,27	-41,8	25,7
0,2705	-47,3	28,6
0,271	-52,3	31,9
0,2715	-56,0	34,8
0,272	-57,7	36,9
0,2725	-56,9	37,8
0,273	-53,6	37,0
0,2735	-48,8	34,9
0,274	-44,0	32,0
0,2745	-40,4	29,3
0,275	-37,8	27,6
0,2755	-34,9	27,5
0,276	-31,1	28,8
0,2765	-26,6	30,8
0,277	-21,6	32,4
0,2775	-16,8	32,5
0,278	-12,7	30,9
0,2785	-9,0	28,0
0,279	-5,3	25,1
0,2795	-1,7	23,0
0,28	1,0	21,8
0,2805	1,6	21,2
0,281	-0,9	20,7
0,2815	-6,6	20,2
0,282	-13,9	19,6
0,2825	-20,9	18,3
0,283	-26,2	16,5
0,2835	-29,8	14,6
0,284	-32,5	13,5
0,2845	-34,7	13,3
0,285	-36,7	13,7
0,2855	-39,0	14,8
0,286	-42,0	16,6
0,2865	-45,8	18,9
0,287	-49,7	21,3
0,2875	-52,8	23,3
0,288	-54,5	24,4
0,2885	-54,4	24,6
0,289	-52,6	24,0
0,2895	-49,0	22,8
0,29	-44,3	21,1
0,2905	-39,8	19,6
0,291	-36,6	18,9
0,2915	-35,0	19,3
0,292	-34,2	20,3
0,2925	-33,3	21,5
0,293	-31,8	22,8
0,2935	-29,3	23,7
0,294	-25,8	23,9
0,2945	-21,6	23,2
0,295	-17,7	21,6
0,2955	-15,0	19,2
0,296	-14,0	16,5
0,2965	-14,6	14,1
0,297	-16,5	12,7
0,2975	-19,9	12,4
0,298	-25,0	13,2
0,2985	-31,3	15,0
0,299	-37,2	17,3
0,2995	-41,4	19,4
0,3	-43,9	20,8
0,3005	-46,2	21,3
0,301	-49,9	20,9
0,3015	-55,8	19,6
0,302	-63,6	17,8
0,3025	-71,7	16,7
0,303	-78,5	17,2
0,3035	-83,0	19,9
0,304	-84,4	24,1
0,3045	-82,9	28,4
0,305	-79,1	31,4
0,3055	-74,3	32,0
0,306	-69,3	30,2
0,3065	-64,4	26,4
0,307	-59,5	22,4
0,3075	-54,9	19,7
0,308	-50,9	19,1
0,3085	-47,2	20,1
0,309	-43,5	21,9
0,3095	-39,2	23,7
0,31	-34,5	24,7
0,3105	-29,8	24,2
0,311	-25,8	21,3
0,3115	-23,1	16,4
0,312	-21,6	10,6
0,3125	-20,7	5,5
0,313	-20,2	2,3
0,3135	-19,9	1,1
0,314	-20,6	1,7
0,3145	-23,2	3,6
0,315	-28,2	6,4
0,3155	-34,6	9,4
0,316	-40,8	11,5
0,3165	-45,7	12,5
0,317	-49,2	13,0
0,3175	-51,9	13,3
0,318	-54,5	13,5
0,3185	-57,5	14,1
0,319	-61,5	15,4
0,3195	-66,1	17,6
0,32	-70,9	20,5
0,3205	-75,3	23,8
0,321	-79,1	26,9
0,3215	-82,1	29,1
0,322	-84,0	30,1
0,3225	-84,1	30,0
0,323	-81,7	29,0
0,3235	-77,4	27,3
0,324	-72,6	25,1
0,3245	-68,7	23,0
0,325	-65,9	21,7
0,3255	-63,5	22,0
0,326	-60,8	24,2
0,3265	-57,7	27,4
0,327	-54,4	30,2
0,3275	-51,1	31,4
0,328	-47,4	31,0
0,3285	-43,8	29,3
0,329	-40,9	27,1
0,3295	-40,0	25,1
0,33	-41,4	24,1
0,3305	-44,9	24,4
0,331	-50,4	25,8
0,3315	-57,5	27,9
0,332	-65,2	29,6
0,3325	-71,9	29,7
0,333	-76,8	27,3
0,3335	-80,6	23,0
0,334	-83,9	18,7
0,3345	-86,9	15,7
0,335	-89,7	14,4
0,3355	-91,8	14,8
0,336	-92,6	16,1
0,3365	-91,4	18,2
0,337	-88,3	20,5
0,3375	-84,2	22,4
0,338	-80,2	23,2
0,3385	-76,5	22,6
0,339	-73,3	20,8
0,3395	-70,5	18,3
0,34	-68,7	15,2
0,3405	-68,5	12,5
0,341	-70,5	11,0
0,3415	-74,0	10,9
0,342	-78,1	11,6
0,3425	-82,0	12,6
0,343	-85,2	13,8
0,3435	-87,1	15,0
0,344	-87,5	15,8
0,3445	-86,9	15,8
0,345	-85,8	14,8
0,3455	-84,5	13,2
0,346	-83,2	11,3
0,3465	-82,0	9,6
0,347	-81,4	8,4
0,3475	-82,2	8,2
0,348	-85,7	9,2
0,3485	-92,5	11,0
0,349	-101,4	13,2
0,3495	-110,4	14,8
0,35	-118,1	15,3
0,3505	-124,2	15,0
0,351	-128,4	13,9
0,3515	-130,3	12,8
0,352	-130,2	12,2
0,3525	-128,8	12,7
0,353	-127,2	14,7
0,3535	-125,9	18,0
0,354	-124,8	21,9
0,3545	-123,6	25,1
0,355	-121,7	26,9
0,3555	-118,1	27,3
0,356	-111,9	26,6
0,3565	-102,2	25,3
0,357	-89,9	24,0
0,3575	-77,2	23,2
0,358	-66,4	22,9
0,3585	-58,8	23,0
0,359	-54,6	23,1
0,3595	-53,6	22,8
0,36	-54,0	21,8
0,3605	-54,2	20,0
0,361	-53,1	17,2
0,3615	-51,4	13,9
0,362	-50,0	10,6
0,3625	-49,5	7,7
0,363	-50,6	5,8
0,3635	-53,3	5,2
0,364	-57,9	6,2
0,3645	-64,3	8,7
0,365	-72,2	12,2
0,3655	-80,7	15,8
0,366	-87,9	18,5
0,3665	-93,2	19,9
0,367	-96,6	20,7
0,3675	-98,9	21,2
0,368	-100,5	21,8
0,3685	-101,7	22,3
0,369	-103,3	22,7
0,3695	-106,1	23,0
0,37	-110,2	23,3
0,3705	-114,5	23,8
0,371	-117,7	24,5
0,3715	-119,0	25,4
0,372	-118,0	26,0
0,3725	-114,8	25,8
0,373	-109,2	24,6
0,3735	-101,8	22,5
0,374	-94,3	20,1
0,3745	-88,5	18,3
0,375	-84,7	17,3
0,3755	-81,9	17,1
0,376	-78,9	17,5
0,3765	-75,3	18,3
0,377	-71,0	19,0
0,3775	-66,2	19,3
0,378	-60,9	18,7
0,3785	-55,9	17,0
0,379	-52,8	14,1
0,3795	-52,7	10,4
0,38	-55,3	6,8
0,3805	-59,0	4,3
0,381	-62,8	3,6
0,3815	-66,8	5,3
0,382	-70,7	8,8
0,3825	-73,8	12,6
0,383	-76,2	15,3
0,3835	-78,3	16,2
0,384	-81,3	15,1
0,3845	-85,3	12,1
0,385	-90,2	8,0
0,3855	-95,7	4,5
0,386	-101,3	2,7
0,3865	-106,4	3,1
0,387	-111,0	5,3
0,3875	-114,7	8,2
0,388	-117,2	10,8
0,3885	-118,2	12,5
0,389	-117,7	13,3
0,3895	-115,8	13,3
0,39	-112,9	12,8
0,3905	-109,9	12,3
0,391	-107,8	12,4
0,3915	-106,8	13,4
0,392	-106,4	15,1
0,3925	-106,0	16,8
0,393	-105,1	18,2
0,3935	-103,3	18,7
0,394	-100,3	18,0
0,3945	-96,0	16,3
0,395	-90,8	14,0
0,3955	-85,7	11,5
0,396	-82,0	9,2
0,3965	-80,3	7,3
0,397	-80,7	5,8
0,3975	-83,2	5,0
0,398	-87,3	5,3
0,3985	-91,9	6,8
0,399	-95,2	8,9
0,3995	-96,5	10,4
0,4	-96,7	11,0
0,4005	-96,6	10,8
0,401	-96,4	10,4
0,4015	-96,3	10,1
0,402	-96,9	10,2
0,4025	-98,9	11,0
0,403	-102,7	12,4
0,4035	-107,4	13,9
0,404	-112,1	15,2
0,4045	-115,6	16,1
0,405	-116,7	16,3
0,4055	-114,7	15,7
0,406	-109,3	14,3
0,4065	-101,2	11,9
0,407	-92,7	8,9
0,4075	-86,5	5,6
0,408	-83,6	2,5
0,4085	-83,1	-0,3
0,409	-82,9	-2,1
0,4095	-81,8	-2,5
0,41	-79,3	-1,7
0,4105	-75,8	-0,5
0,411	-71,9	0,0
0,4115	-68,0	-0,8
0,412	-64,4	-2,8
0,4125	-61,2	-5,3
0,413	-58,9	-7,3
0,4135	-58,0	-7,9
0,414	-58,3	-7,0
0,4145	-60,0	-4,7
0,415	-63,1	-1,4
0,4155	-67,2	1,8
0,416	-70,9	3,9
0,4165	-73,9	4,6
0,417	-76,3	4,3
0,4175	-79,1	3,5
0,418	-82,9	3,0
0,4185	-87,6	3,6
0,419	-93,0	5,7
0,4195	-98,7	9,1
0,42	-104,0	13,5
0,4205	-108,2	17,9
0,421	-110,7	21,8
0,4215	-111,0	24,7
0,422	-109,0	26,3
0,4225	-105,0	26,9
0,423	-99,5	26,3
0,4235	-93,1	24,8
0,424	-87,0	22,9
0,4245	-82,4	21,0
0,425	-79,8	18,5
0,4255	-78,6	14,8
0,426	-77,8	10,1
0,4265	-76,3	4,9
0,427	-73,0	-0,2
0,4275	-68,1	-5,0
0,428	-62,9	-9,7
0,4285	-58,6	-14,1
0,429	-55,6	-17,8
0,4295	-53,6	-20,3
0,43	-52,5	-21,5
0,4305	-52,7	-21,4
0,431	-54,8	-20,3
0,4315	-58,7	-17,7
0,432	-63,7	-14,3
0,4325	-68,3	-11,2
0,433	-71,7	-9,5
0,4335	-74,0	-9,3
0,434	-75,7	-9,9
0,4345	-77,1	-10,7
0,435	-78,7	-11,2
0,4355	-80,7	-10,8
0,436	-83,2	-9,7
0,4365	-85,8	-7,7
0,437	-87,9	-5,4
0,4375	-89,2	-3,3
0,438	-89,6	-2,0
0,4385	-89,3	-1,9
0,439	-88,5	-2,6
0,4395	-87,7	-4,2
0,44	-87,6	-6,3
0,4405	-89,2	-8,6
0,441	-92,4	-10,1
0,4415	-95,8	-10,2
0,442	-97,0	-8,9
0,4425	-94,5	-6,8
0,443	-88,7	-4,6
0,4435	-81,0	-2,7
0,444	-72,2	-1,6
0,4445	-63,3	-1,6
0,445	-55,0	-2,6
0,4455	-48,1	-4,1
0,446	-42,9	-5,3
0,4465	-39,0	-5,7
0,447	-36,1	-5,3
0,4475	-34,2	-3,8
0,448	-34,3	-1,6
0,4485	-37,0	0,7
0,449	-41,6	1,9
0,4495	-46,2	1,2
0,45	-49,4	-1,3
0,4505	-51,3	-4,7
0,451	-53,3	-8,3
0,4515	-57,1	-11,6
0,452	-63,7	-14,1
0,4525	-72,3	-15,1
0,453	-80,7	-14,4
0,4535	-87,3	-12,2
0,454	-91,8	-8,8
0,4545	-94,0	-5,3
0,455	-93,8	-2,4
0,4555	-91,0	-0,4
0,456	-85,3	0,4
0,4565	-77,3	0,5
0,457	-68,2	0,1
0,4575	-59,7	-0,4
0,458	-53,3	-1,1
0,4585	-48,9	-2,4
0,459	-46,4	-4,8
0,4595	-45,3	-8,2
0,46	-44,4	-11,7
0,4605	-41,8	-14,9
0,461	-36,4	-17,4
0,4615	-28,9	-19,1
0,462	-21,2	-20,2
0,4625	-15,4	-21,1
0,463	-12,7	-22,1
0,4635	-13,2	-22,8
0,464	-16,1	-22,8
0,4645	-21,0	-21,6
0,465	-27,0	-18,8
0,4655	-32,8	-15,2
0,466	-37,0	-11,9
0,4665	-39,2	-9,8
0,467	-39,8	-9,1
0,4675	-40,0	-9,6
0,468	-40,5	-10,8
0,4685	-42,1	-12,0
0,469	-45,2	-12,7
0,4695	-49,6	-12,5
0,47	-54,9	-11,4
0,4705	-60,0	-10,1
0,471	-63,7	-8,8
0,4715	-65,0	-8,0
0,472	-63,6	-7,9
0,4725	-59,7	-8,7
0,473	-53,3	-10,6
0,4735	-45,3	-13,4
0,474	-37,7	-16,1
0,4745	-31,9	-17,6
0,475	-28,3	-17,8
0,4755	-26,3	-17,2
0,476	-25,2	-16,4
0,4765	-24,6	-15,5
0,477	-23,7	-14,9
0,4775	-21,8	-15,1
0,478	-18,7	-16,2
0,4785	-15,3	-18,0
0,479	-13,0	-20,2
0,4795	-13,0	-22,3
0,48	-15,5	-23,9
0,4805	-19,8	-24,3
0,481	-25,0	-23,6
0,4815	-31,1	-22,0
0,482	-37,5	-20,2
0,4825	-42,8	-18,9
0,483	-46,2	-18,7
0,4835	-47,4	-19,3
0,484	-47,2	-20,3
0,4845	-45,6	-21,2
0,485	-43,2	-21,4
0,4855	-41,2	-20,7
0,486	-40,3	-19,1
0,4865	-40,5	-16,8
0,487	-40,5	-14,2
0,4875	-39,0	-11,8
0,488	-36,1	-9,9
0,4885	-32,5	-8,9
0,489	-29,0	-9,0
0,4895	-25,4	-10,5
0,49	-21,2	-13,4
0,4905	-16,5	-16,6
0,491	-12,3	-18,7
0,4915	-8,9	-18,8
0,492	-5,9	-17,4
0,4925	-2,8	-15,1
0,493	0,1	-12,8
0,4935	2,5	-11,3
0,494	4,8	-11,1
0,4945	7,3	-12,5
0,495	10,1	-15,2
0,4955	12,8	-18,3
0,496	14,8	-21,0
0,4965	15,5	-22,7
0,497	14,2	-23,3
0,4975	10,6	-23,1
0,498	4,9	-22,6
0,4985	-2,3	-21,9
0,499	-9,2	-21,3
0,4995	-14,3	-21,3
0,5	-17,1	-21,8
0,5005	-18,1	-22,5
0,501	-18,1	-23,0
0,5015	-17,7	-23,1
0,502	-18,3	-22,7
0,5025	-20,6	-21,4
0,503	-24,6	-19,4
0,5035	-29,6	-16,9
0,504	-34,5	-14,2
0,5045	-37,8	-11,6
0,505	-39,0	-9,0
0,5055	-37,6	-6,3
0,506	-33,7	-3,4
0,5065	-27,4	-0,6
0,507	-20,1	2,1
0,5075	-13,3	4,6
0,508	-8,4	7,0
0,5085	-5,4	8,9
0,509	-3,5	10,0
0,5095	-1,7	10,3
0,51	0,6	10,0
0,5105	3,7	9,1
0,511	7,6	6,8
0,5115	11,9	2,1
0,512	15,6	-5,4
0,5125	17,8	-15,5
0,513	17,5	-26,7
0,5135	14,7	-36,5
0,514	9,9	-42,6
0,5145	4,2	-43,8
0,515	-1,8	-40,8
0,5155	-7,3	-36,0
0,516	-11,3	-31,2
0,5165	-14,0	-27,8
0,517	-16,0	-25,5
0,5175	-18,2	-23,7
0,518	-20,8	-21,8
0,5185	-23,4	-19,6
0,519	-25,5	-17,1
0,5195	-27,4	-14,3
0,52	-29,5	-11,6
0,5205	-32,3	-9,2
0,521	-35,0	-7,4
0,5215	-36,9	-6,4
0,522	-37,2	-6,4
0,5225	-35,9	-7,7
0,523	-33,1	-10,8
0,5235	-29,1	-15,4
0,524	-24,4	-20,0
0,5245	-20,1	-23,1
0,525	-17,1	-24,0
0,5255	-16,3	-23,3
0,526	-18,0	-21,3
0,5265	-21,7	-19,1
0,527	-25,8	-17,4
0,5275	-28,5	-17,1
0,528	-28,6	-18,2
0,5285	-25,9	-20,2
0,529	-21,0	-22,4
0,5295	-14,2	-24,0
0,53	-6,4	-24,3
0,5305	1,4	-23,3
0,531	8,0	-20,9
0,5315	12,1	-17,5
0,532	13,8	-13,7
0,5325	14,2	-10,4
0,533	14,5	-8,4
0,5335	15,3	-7,6
0,534	16,6	-7,2
0,5345	17,6	-6,3
0,535	17,2	-4,4
0,5355	14,6	-1,6
0,536	9,2	1,1
0,5365	1,2	2,8
0,537	-8,2	2,7
0,5375	-17,2	1,4
0,538	-24,2	-0,4
0,5385	-28,5	-2,4
0,539	-30,1	-4,7
0,5395	-28,8	-7,9
0,54	-25,3	-12,5
0,5405	-20,6	-17,8
0,541	-16,3	-22,7
0,5415	-12,7	-25,6
0,542	-9,4	-26,3
0,5425	-5,8	-25,4
0,543	-1,8	-23,9
0,5435	2,3	-22,7
0,544	6,6	-22,3
0,5445	10,8	-23,0
0,545	14,1	-24,6
0,5455	15,5	-26,3
0,546	14,1	-27,5
0,5465	9,8	-27,6
0,547	3,3	-26,5
0,5475	-4,7	-24,4
0,548	-13,2	-21,5
0,5485	-21,4	-18,3
0,549	-27,9	-15,5
0,5495	-31,5	-13,7
0,55	-32,1	-13,0
0,5505	-30,2	-13,0
0,551	-26,8	-13,2
0,5515	-23,0	-13,6
0,552	-19,8	-14,0
0,5525	-18,0	-14,1
0,553	-17,6	-13,3
0,5535	-17,5	-11,6
0,554	-16,4	-9,7
0,5545	-13,2	-8,6
0,555	-7,8	-8,8
0,5555	-1,1	-10,2
0,556	5,8	-12,2
0,5565	11,9	-14,5
0,557	16,3	-16,8
0,5575	19,1	-18,6
0,558	20,9	-19,4
0,5585	22,8	-19,3
0,559	25,3	-18,3
0,5595	28,0	-17,1
0,56	30,4	-15,9
0,5605	32,6	-15,8
0,561	34,4	-17,3
0,5615	35,9	-20,3
0,562	37,2	-23,9
0,5625	37,8	-26,8
0,563	37,5	-28,1
0,5635	35,7	-27,5
0,564	32,1	-25,3
0,5645	26,8	-22,1
0,565	19,9	-18,3
0,5655	12,0	-14,7
0,566	4,3	-12,3
0,5665	-2,2	-11,2
0,567	-7,9	-11,3
0,5675	-13,5	-12,1
0,568	-19,9	-12,9
0,5685	-27,1	-13,4
0,569	-34,5	-12,9
0,5695	-40,6	-11,2
0,57	-44,7	-8,7
0,5705	-46,8	-5,8
0,571	-46,8	-3,4
0,5715	-44,8	-2,4
0,572	-40,3	-3,0
0,5725	-33,3	-4,8
0,573	-23,9	-7,4
0,5735	-13,2	-10,2
0,574	-2,5	-12,5
0,5745	7,0	-13,4
0,575	14,9	-12,8
0,5755	21,5	-11,4
0,576	27,4	-10,1
0,5765	33,5	-9,5
0,577	40,3	-10,2
0,5775	47,4	-12,7
0,578	53,8	-16,5
0,5785	58,8	-21,1
0,579	62,4	-25,4
0,5795	64,5	-28,4
0,58	64,7	-29,5
0,5805	62,5	-28,9
0,581	57,8	-26,8
0,5815	50,5	-23,3
0,582	41,6	-19,3
0,5825	33,4	-15,8
0,583	27,7	-13,6
0,5835	24,7	-13,0
0,584	22,6	-13,6
0,5845	20,0	-14,9
0,585	16,3	-16,1
0,5855	11,7	-16,5
0,586	6,7	-15,7
0,5865	2,0	-13,8
0,587	-1,8	-11,2
0,5875	-4,1	-8,5
0,588	-4,6	-6,3
0,5885	-3,3	-4,7
0,589	-0,3	-3,6
0,5895	4,5	-2,9
0,59	11,1	-2,6
0,5905	18,4	-2,3
0,591	25,2	-1,6
0,5915	30,8	0,0
0,592	35,6	2,2
0,5925	39,7	4,1
0,593	43,1	4,8
0,5935	46,1	3,8
0,594	49,1	1,3
0,5945	52,6	-2,4
0,595	56,3	-6,8
0,5955	59,6	-11,6
0,596	61,4	-16,1
0,5965	61,3	-19,6
0,597	58,9	-21,4
0,5975	54,3	-22,0
0,598	47,7	-22,4
0,5985	39,8	-23,4
0,599	32,1	-25,0
0,5995	26,2	-26,3
0,6	22,4	-26,4
0,6005	20,1	-25,2
0,601	18,6	-23,2
0,6015	17,3	-20,8
0,602	15,6	-18,2
0,6025	13,0	-15,6
0,603	9,4	-13,5
0,6035	5,0	-12,2
0,604	0,3	-11,5
0,6045	-3,8	-11,3
0,605	-6,4	-11,3
0,6055	-6,8	-11,3
0,606	-4,5	-11,7
0,6065	0,5	-12,6
0,607	7,0	-13,9
0,6075	13,4	-14,9
0,608	18,3	-14,7
0,6085	21,6	-13,3
0,609	23,7	-10,9
0,6095	25,0	-8,3
0,61	25,8	-5,9
0,6105	26,8	-4,6
0,611	28,4	-4,9
0,6115	30,9	-6,7
0,612	33,9	-9,3
0,6125	36,8	-12,1
0,613	39,2	-14,3
0,6135	40,4	-16,0
0,614	40,2	-17,3
0,6145	37,0	-18,5
0,615	30,1	-19,2
0,6155	20,5	-19,1
0,616	10,8	-18,4
0,6165	3,3	-17,7
0,617	-1,0	-17,5
0,6175	-2,4	-17,7
0,618	-1,5	-17,7
0,6185	0,5	-17,1
0,619	2,5	-16,0
0,6195	3,7	-14,8
0,62	3,9	-13,8
0,6205	3,6	-13,2
0,621	3,9	-12,8
0,6215	6,2	-12,4
0,622	11,1	-12,1
0,6225	18,1	-12,3
0,623	25,9	-13,7
0,6235	33,5	-15,9
0,624	39,9	-18,1
0,6245	44,6	-19,4
0,625	47,9	-19,8
0,6255	50,4	-20,1
0,626	52,8	-20,4
0,6265	55,4	-21,0
0,627	58,2	-21,7
0,6275	60,8	-22,7
0,628	63,1	-23,7
0,6285	65,0	-24,8
0,629	66,3	-25,6
0,6295	66,8	-26,3
0,63	66,2	-26,7
0,6305	64,2	-26,4
0,631	60,6	-24,9
0,6315	56,1	-22,2
0,632	52,0	-18,9
0,6325	50,0	-16,0
0,633	50,4	-14,5
0,6335	52,0	-14,3
0,634	53,1	-14,8
0,6345	52,8	-15,5
0,635	50,3	-16,0
0,6355	45,3	-16,1
0,636	37,8	-15,3
0,6365	28,5	-13,7
0,637	18,5	-11,3
0,6375	8,8	-8,6
0,638	0,4	-6,1
0,6385	-5,9	-4,6
0,639	-10,0	-4,7
0,6395	-11,8	-6,2
0,64	-12,0	-8,7
0,6405	-11,6	-10,7
0,641	-11,4	-11,2
0,6415	-11,4	-10,1
0,642	-10,6	-8,1
0,6425	-8,3	-6,1
0,643	-4,5	-4,5
0,6435	0,7	-3,9
0,644	7,1	-4,4
0,6445	15,1	-6,2
0,645	24,3	-9,0
0,6455	33,8	-12,2
0,646	42,0	-15,3
0,6465	48,2	-17,8
0,647	51,9	-19,8
0,6475	53,6	-21,0
0,648	53,7	-21,2
0,6485	53,6	-20,3
0,649	54,5	-18,8
0,6495	56,5	-17,5
0,65	58,3	-16,8
0,6505	58,4	-16,8
0,651	57,0	-17,3
0,6515	54,9	-17,8
0,652	52,8	-17,8
0,6525	50,4	-16,8
0,653	47,4	-14,8
0,6535	43,3	-12,1
0,654	38,5	-9,4
0,6545	34,2	-7,3
0,655	31,7	-6,1
0,6555	31,7	-5,8
0,656	33,9	-6,3
0,6565	37,6	-7,1
0,657	41,3	-7,5
0,6575	43,5	-7,2
0,658	43,6	-5,8
0,6585	42,3	-3,5
0,659	41,2	-0,6
0,6595	41,1	2,5
0,66	42,0	4,9
0,6605	43,7	5,7
0,661	46,3	4,7
0,6615	49,8	2,0
0,662	53,6	-1,6
0,6625	56,8	-5,6
0,663	59,0	-9,3
0,6635	60,5	-12,4
0,664	61,2	-14,9
0,6645	60,4	-16,8
0,665	57,9	-17,9
0,6655	54,4	-18,7
0,666	52,0	-19,7
0,6665	52,2	-21,1
0,667	54,9	-22,0
0,6675	58,3	-22,0
0,668	60,0	-21,5
0,6685	58,8	-21,3
0,669	54,5	-21,2
0,6695	48,3	-20,8
0,67	41,5	-19,7
0,6705	35,3	-17,8
0,671	30,5	-15,8
0,6715	27,6	-13,9
0,672	26,7	-12,8
0,6725	27,8	-12,9
0,673	30,7	-14,5
0,6735	35,0	-17,3
0,674	39,4	-20,3
0,6745	42,8	-22,1
0,675	45,2	-22,3
0,6755	47,2	-20,9
0,676	49,4	-18,8
0,6765	51,9	-16,4
0,677	54,8	-14,3
0,6775	58,1	-12,8
0,678	62,2	-11,8
0,6785	66,9	-11,4
0,679	71,8	-11,4
0,6795	75,7	-11,4
0,68	77,9	-10,5
0,6805	78,0	-8,3
0,681	75,8	-4,7
0,6815	71,3	-0,1
0,682	65,6	4,3
0,6825	59,7	6,9
0,683	54,7	6,7
0,6835	50,3	3,8
0,684	46,1	-0,8
0,6845	41,7	-6,3
0,685	36,9	-11,9
0,6855	32,0	-17,1
0,686	27,1	-21,2
0,6865	22,5	-23,8
0,687	19,0	-24,6
0,6875	16,9	-23,6
0,688	16,2	-21,4
0,6885	16,8	-19,1
0,689	18,6	-17,6
0,6895	22,0	-17,4
0,69	26,7	-18,4
0,6905	31,8	-19,9
0,691	36,2	-21,0
0,6915	39,7	-21,2
0,692	43,3	-20,6
0,6925	47,4	-19,6
0,693	52,2	-18,6
0,6935	57,1	-17,8
0,694	61,5	-17,2
0,6945	65,1	-17,3
0,695	67,8	-18,3
0,6955	69,7	-19,6
0,696	70,7	-20,7
0,6965	70,8	-20,8
0,697	69,8	-19,5
0,6975	67,6	-17,1
0,698	64,0	-13,7
0,6985	58,8	-9,6
0,699	53,2	-5,8
0,6995	48,2	-3,0
0,7	44,4	-1,8
0,7005	41,6	-2,0
0,701	39,4	-3,3
0,7015	37,2	-5,3
0,702	33,8	-6,9
0,7025	28,6	-7,4
0,703	21,7	-6,5
0,7035	14,3	-4,6
0,704	8,0	-2,4
0,7045	3,9	-0,8
0,705	2,3	-0,6
0,7055	3,3	-2,0
0,706	6,9	-4,5
0,7065	13,7	-6,9
0,707	23,2	-8,3
0,7075	34,0	-8,2
0,708	44,1	-6,9
0,7085	52,6	-5,1
0,709	59,0	-3,6
0,7095	63,8	-3,0
0,71	67,5	-3,6
0,7105	70,8	-5,8
0,711	73,9	-9,4
0,7115	77,0	-13,9
0,712	79,9	-18,3
0,7125	82,2	-21,5
0,713	83,5	-23,2
0,7135	83,5	-23,3
0,714	82,3	-22,2
0,7145	79,7	-20,1
0,715	75,3	-17,2
0,7155	69,7	-13,9
0,716	64,1	-11,3
0,7165	59,2	-10,0
0,717	55,0	-9,9
0,7175	51,4	-10,7
0,718	48,1	-11,6
0,7185	44,9	-12,0
0,719	41,3	-11,5
0,7195	37,4	-10,3
0,72	33,5	-8,5
0,7205	30,3	-6,5
0,721	28,8	-4,3
0,7215	29,3	-2,1
0,722	31,8	-0,3
0,7225	35,8	0,6
0,723	41,0	0,4
0,7235	47,2	-0,9
0,724	52,9	-2,8
0,7245	56,8	-4,5
0,725	58,3	-5,6
0,7255	58,7	-6,8
0,726	60,2	-8,1
0,7265	64,3	-9,5
0,727	71,6	-10,7
0,7275	81,1	-11,8
0,728	91,0	-12,9
0,7285	99,4	-13,9
0,729	104,8	-14,7
0,7295	106,1	-15,1
0,73	103,5	-14,6
0,7305	98,0	-13,0
0,731	90,3	-10,7
0,7315	81,0	-7,9
0,732	70,9	-5,3
0,7325	61,5	-3,6
0,733	54,2	-3,0
0,7335	49,1	-2,9
0,734	45,3	-2,6
0,7345	41,2	-1,8
0,735	35,4	-0,8
0,7355	27,8	0,7
0,736	18,5	2,6
0,7365	8,6	4,9
0,737	-0,8	7,4
0,7375	-7,8	9,9
0,738	-10,9	12,2
0,7385	-9,7	14,1
0,739	-5,2	15,0
0,7395	1,3	14,3
0,74	9,0	11,3
0,7405	17,1	6,9
0,741	24,5	2,7
0,7415	30,4	0,1
0,742	34,9	-1,0
0,7425	38,6	-1,7
0,743	42,8	-3,1
0,7435	48,1	-5,3
0,744	55,2	-8,0
0,7445	63,4	-11,0
0,745	72,2	-14,3
0,7455	80,6	-17,4
0,746	87,6	-20,1
0,7465	92,2	-21,6
0,747	93,8	-22,0
0,7475	93,0	-21,3
0,748	91,0	-19,3
0,7485	89,2	-16,3
0,749	87,7	-12,6
0,7495	85,9	-9,2
0,75	83,2	-6,3
0,7505	79,3	-3,8
0,751	74,8	-1,8
0,7515	70,1	-0,2
0,752	65,2	1,3
0,7525	60,2	2,5
0,753	55,4	3,8
0,7535	51,1	5,0
0,754	47,6	5,7
0,7545	45,0	5,3
0,755	43,8	3,6
0,7555	44,5	1,1
0,756	47,3	-1,0
0,7565	51,9	-2,6
0,757	57,3	-4,0
0,7575	62,2	-5,6
0,758	65,8	-7,3
0,7585	68,6	-8,5
0,759	71,2	-9,0
0,7595	73,8	-9,0
0,76	76,5	-8,7
0,7605	79,4	-8,8
0,761	82,6	-10,0
0,7615	85,6	-12,3
0,762	88,3	-15,0
0,7625	90,3	-16,9
0,763	91,3	-17,5
0,7635	90,7	-16,6
0,764	88,3	-14,8
0,7645	83,9	-12,2
0,765	77,8	-9,1
0,7655	71,3	-5,9
0,766	65,9	-3,3
0,7665	61,8	-1,8
0,767	58,5	-1,5
0,7675	55,6	-1,8
0,768	52,9	-2,1
0,7685	50,3	-2,3
0,769	47,6	-2,3
0,7695	44,3	-2,5
0,77	40,5	-2,9
0,7705	36,3	-2,9
0,771	32,6	-2,3
0,7715	30,3	-1,3
0,772	30,0	-0,3
0,7725	32,0	0,2
0,773	36,3	0,1
0,7735	42,1	-0,4
0,774	47,8	-1,1
0,7745	52,2	-1,1
0,775	55,4	-0,2
0,7755	58,2	1,3
0,776	61,2	2,7
0,7765	64,6	3,5
0,777	68,5	3,3
0,7775	72,8	1,6
0,778	77,1	-1,4
0,7785	81,1	-5,0
0,779	84,3	-8,8
0,7795	85,8	-12,4
0,78	85,4	-15,4
0,7805	83,4	-16,9
0,781	80,3	-16,3
0,7815	76,0	-13,5
0,782	70,9	-9,9
0,7825	65,8	-6,8
0,783	61,8	-5,3
0,7835	58,4	-5,1
0,784	55,0	-5,7
0,7845	50,9	-6,3
0,785	45,8	-6,6
0,7855	39,8	-6,4
0,786	33,4	-5,6
0,7865	27,3	-4,2
0,787	21,7	-2,0
0,7875	16,6	0,4
0,788	12,3	2,8
0,7885	9,2	4,6
0,789	7,9	5,4
0,7895	8,4	5,1
0,79	10,4	3,4
0,7905	13,7	1,0
0,791	17,7	-1,0
0,7915	22,4	-1,8
0,792	28,0	-1,5
0,7925	34,9	-0,4
0,793	43,2	1,0
0,7935	52,6	2,4
0,794	62,4	3,3
0,7945	71,3	3,0
0,795	78,3	1,5
0,7955	83,3	-0,9
0,796	86,6	-3,4
0,7965	88,6	-5,1
0,797	89,6	-5,4
0,7975	89,4	-4,5
0,798	87,5	-2,9
0,7985	83,9	-1,3
0,799	79,0	-0,8
0,7995	73,5	-2,3
0,8	67,5	-5,2
0,8005	61,9	-8,0
0,801	57,5	-9,9
0,8015	54,8	-10,4
0,802	52,9	-9,5
0,8025	50,7	-7,5
0,803	47,4	-4,5
0,8035	43,4	-1,1
0,804	39,1	2,1
0,8045	35,2	4,5
0,805	32,2	6,0
0,8055	30,7	6,3
0,806	31,0	5,4
0,8065	33,3	3,3
0,807	37,1	0,5
0,8075	40,8	-2,0
0,808	43,2	-3,3
0,8085	43,9	-3,3
0,809	43,9	-2,6
0,8095	43,7	-1,6
0,81	43,6	-0,6
0,8105	43,8	0,3
0,811	44,8	0,8
0,8115	46,9	0,8
0,812	50,1	0,2
0,8125	53,8	-0,3
0,813	57,2	0,0
0,8135	59,6	1,5
0,814	60,5	3,9
0,8145	59,2	6,8
0,815	55,3	9,6
0,8155	49,9	11,2
0,816	44,6	10,9
0,8165	41,0	8,8
0,817	39,7	5,9
0,8175	40,1	3,2
0,818	41,6	1,0
0,8185	43,3	-0,4
0,819	44,4	-1,0
0,8195	44,2	-1,1
0,82	42,1	-0,6
0,8205	38,5	0,3
0,821	34,7	1,6
0,8215	32,0	2,9
0,822	31,3	3,7
0,8225	32,5	3,8
0,823	35,8	3,2
0,8235	40,3	2,1
0,824	44,6	0,8
0,8245	47,0	-0,4
0,825	47,5	-1,2
0,8255	47,3	-1,2
0,826	47,3	-0,2
0,8265	48,1	1,9
0,827	50,2	4,1
0,8275	53,4	5,6
0,828	57,7	6,2
0,8285	63,4	5,8
0,829	70,1	5,0
0,8295	76,6	4,0
0,83	80,5	2,8
0,8305	80,0	1,1
0,831	74,1	-0,8
0,8315	62,5	-2,1
0,832	46,5	-2,2
0,8325	28,8	-1,5
0,833	12,3	-0,6
0,8335	-1,1	0,3
0,834	-10,9	1,3
0,8345	-17,5	2,3
0,835	-21,6	3,1
0,8355	-24,0	3,8
0,836	-25,4	4,9
0,8365	-26,8	6,7
0,837	-28,6	8,6
0,8375	-30,2	10,0
0,838	-29,9	10,4
0,8385	-26,5	9,9
0,839	-19,5	8,6
0,8395	-8,9	6,5
0,84	5,1	3,8
0,8405	21,6	0,9
0,841	38,8	-1,7
0,8415	54,8	-3,9
0,842	67,6	-5,9
0,8425	76,0	-7,8
0,843	79,9	-9,7
0,8435	81,0	-11,7
0,844	81,3	-14,1
0,8445	81,9	-16,4
0,845	82,6	-18,1
0,8455	83,0	-18,7
0,846	83,0	-18,2
0,8465	82,6	-16,6
0,847	81,2	-14,2
0,8475	78,4	-11,2
0,848	73,8	-7,7
0,8485	68,0	-4,4
0,849	62,0	-2,1
0,8495	56,8	-1,3
0,85	52,7	-1,8
0,8505	49,6	-3,1
0,851	47,2	-4,9
0,8515	45,0	-7,0
0,852	42,0	-9,3
0,8525	37,5	-11,1
0,853	31,8	-11,6
0,8535	25,5	-10,1
0,854	19,3	-6,9
0,8545	13,8	-2,9
0,855	9,9	0,8
0,8555	7,7	3,5
0,856	7,3	4,8
0,8565	8,6	4,4
0,857	10,9	2,8
0,8575	13,6	0,9
0,858	16,1	-0,2
0,8585	18,2	-0,2
0,859	20,1	0,4
0,8595	21,7	1,3
0,86	22,3	2,3
0,8605	21,8	3,1
0,861	20,3	3,8
0,8615	18,0	4,3
0,862	15,5	4,5
0,8625	13,4	4,3
0,863	12,2	3,8
0,8635	11,9	3,3
0,864	13,0	3,0
0,8645	15,2	3,3
0,865	17,9	4,3
0,8655	20,4	5,3
0,866	22,2	5,3
0,8665	23,5	3,9
0,867	24,5	1,3
0,8675	25,7	-1,9
0,868	27,7	-4,4
0,8685	30,0	-5,1
0,869	32,1	-3,6
0,8695	34,2	-0,1
0,87	36,9	4,3
0,8705	40,8	8,3
0,871	45,0	11,2
0,8715	49,2	11,9
0,872	53,2	10,2
0,8725	57,2	6,4
0,873	61,4	1,5
0,8735	65,2	-3,5
0,874	67,4	-7,6
0,8745	67,7	-10,2
0,875	66,3	-10,8
0,8755	64,6	-9,9
0,876	63,5	-8,4
0,8765	63,3	-7,4
0,877	63,9	-7,6
0,8775	65,2	-9,0
0,878	67,0	-11,3
0,8785	68,9	-13,3
0,879	70,3	-14,5
0,8795	70,9	-14,5
0,88	70,1	-13,4
0,8805	67,6	-11,7
0,881	63,3	-9,6
0,8815	57,3	-7,3
0,882	50,7	-4,8
0,8825	44,7	-2,4
0,883	40,3	-0,8
0,8835	37,5	0,1
0,884	35,8	0,1
0,8845	34,3	-0,0
0,885	32,6	0,0
0,8855	30,4	0,8
0,886	27,6	2,2
0,8865	24,5	4,1
0,887	21,6	6,4
0,8875	19,3	8,9
0,888	18,8	11,2
0,8885	20,5	12,5
0,889	24,0	12,2
0,8895	28,4	10,0
0,89	32,7	6,0
0,8905	35,9	1,5
0,891	37,7	-1,9
0,8915	38,4	-3,3
0,892	38,9	-3,1
0,8925	40,0	-2,5
0,893	41,8	-2,5
0,8935	44,2	-3,6
0,894	47,3	-6,0
0,8945	50,8	-9,3
0,895	54,5	-12,4
0,8955	58,3	-14,3
0,896	61,8	-14,3
0,8965	64,1	-12,3
0,897	64,7	-8,8
0,8975	63,5	-4,8
0,898	60,6	-0,3
0,8985	56,8	4,2
0,899	53,5	8,3
0,8995	51,4	11,1
0,9	50,5	12,4
0,9005	50,1	12,5
0,901	49,9	11,8
0,9015	49,7	10,8
0,902	48,6	9,9
0,9025	46,1	9,8
0,903	42,1	10,5
0,9035	37,6	11,8
0,904	33,7	13,3
0,9045	31,3	14,4
0,905	30,9	14,5
0,9055	32,4	13,2
0,906	35,6	10,5
0,9065	40,4	7,0
0,907	45,5	3,0
0,9075	49,2	-1,2
0,908	50,2	-5,1
0,9085	49,0	-8,4
0,909	47,0	-11,3
0,9095	45,3	-13,5
0,91	45,0	-14,7
0,9105	46,5	-15,1
0,911	49,8	-15,3
0,9115	54,1	-15,8
0,912	58,8	-16,3
0,9125	62,9	-16,4
0,913	66,0	-16,0
0,9135	67,4	-15,0
0,914	67,0	-13,6
0,9145	64,3	-11,8
0,915	59,6	-9,8
0,9155	53,8	-7,6
0,916	48,7	-6,1
0,9165	44,9	-5,8
0,917	42,0	-6,3
0,9175	39,2	-6,9
0,918	36,8	-7,2
0,9185	35,9	-7,0
0,919	36,7	-6,0
0,9195	38,4	-3,9
0,92	39,8	-0,9
0,9205	40,1	2,4
0,921	39,3	5,6
0,9215	37,5	7,9
0,922	35,0	9,1
0,9225	32,7	8,8
0,923	31,3	7,2
0,9235	30,7	5,0
0,924	29,7	3,2
0,9245	27,0	2,4
0,925	22,4	2,8
0,9255	16,9	3,8
0,926	11,6	5,0
0,9265	7,3	6,0
0,927	4,4	6,7
0,9275	2,9	6,8
0,928	2,7	6,1
0,9285	4,0	4,7
0,929	7,5	3,1
0,9295	13,2	1,8
0,93	20,1	1,0
0,9305	26,5	0,9
0,931	30,8	1,2
0,9315	32,8	2,0
0,932	33,4	3,4
0,9325	34,1	5,1
0,933	36,1	6,2
0,9335	39,5	6,6
0,934	43,9	6,8
0,9345	48,4	7,2
0,935	51,8	7,9
0,9355	53,1	8,8
0,936	52,0	9,6
0,9365	48,6	9,8
0,937	43,3	9,3
0,9375	37,3	8,1
0,938	31,8	6,4
0,9385	27,4	4,6
0,939	25,0	3,2
0,9395	25,3	2,4
0,94	28,2	2,1
0,9405	32,4	1,7
0,941	35,8	1,2
0,9415	36,9	0,8
0,942	36,0	0,7
0,9425	34,6	1,2
0,943	34,1	2,6
0,9435	35,8	4,4
0,944	39,7	6,0
0,9445	44,8	6,8
0,945	50,4	6,5
0,9455	56,2	5,5
0,946	62,1	4,2
0,9465	67,5	3,2
0,947	71,0	2,9
0,9475	71,3	3,1
0,948	67,7	3,2
0,9485	60,9	2,7
0,949	52,9	1,0
0,9495	45,6	-2,3
0,95	39,8	-6,8
0,9505	34,7	-11,4
0,951	29,9	-14,7
0,9515	24,7	-15,5
0,952	18,6	-14,1
0,9525	11,7	-11,3
0,953	4,8	-7,6
0,9535	-0,7	-3,5
0,954	-3,8	0,4
0,9545	-4,6	3,5
0,955	-3,5	5,1
0,9555	-1,2	5,1
0,956	2,6	3,2
0,9565	8,3	-0,1
0,957	15,2	-3,9
0,9575	22,1	-7,1
0,958	28,0	-8,8
0,9585	32,3	-8,9
0,959	35,3	-7,8
0,9595	38,0	-6,1
0,96	40,9	-4,3
0,9605	44,3	-2,7
0,961	47,7	-1,8
0,9615	51,1	-2,0
0,962	54,4	-3,2
0,9625	57,6	-5,0
0,963	60,3	-6,7
0,9635	62,0	-7,8
0,964	62,1	-8,1
0,9645	60,0	-7,3
0,965	55,7	-5,3
0,9655	50,2	-2,9
0,966	45,3	-0,9
0,9665	42,2	0,3
0,967	40,9	1,0
0,9675	40,7	1,9
0,968	40,3	3,1
0,9685	38,6	4,6
0,969	34,8	6,4
0,9695	29,0	8,4
0,97	22,3	10,6
0,9705	16,0	13,0
0,971	10,8	15,3
0,9715	7,4	16,8
0,972	5,9	16,9
0,9725	6,4	15,2
0,973	8,9	12,0
0,9735	12,3	7,9
0,974	15,7	3,6
0,9745	18,1	0,0
0,975	19,9	-2,2
0,9755	22,2	-2,5
0,976	25,8	-0,9
0,9765	30,8	2,0
0,977	37,1	4,9
0,9775	43,9	6,6
0,978	50,9	6,2
0,9785	57,6	3,8
0,979	63,6	0,2
0,9795	68,1	-3,7
0,98	69,8	-6,6
0,9805	68,6	-7,9
0,981	64,7	-7,4
0,9815	59,2	-5,5
0,982	53,6	-3,3
0,9825	49,4	-1,9
0,983	46,9	-2,1
0,9835	45,2	-3,4
0,984	43,2	-4,4
0,9845	40,2	-4,2
0,985	36,3	-2,6
0,9855	31,6	0,2
0,986	26,7	3,8
0,9865	22,1	7,8
0,987	18,3	12,0
0,9875	15,4	15,4
0,988	13,9	17,4
0,9885	14,2	17,3
0,989	16,6	14,7
0,9895	20,9	9,7
0,99	26,4	3,3
0,9905	31,8	-2,9
0,991	35,8	-7,8
0,9915	38,1	-10,8
0,992	39,4	-12,6
0,9925	40,9	-13,3
0,993	43,3	-12,8
0,9935	46,5	-11,4
0,994	50,5	-9,7
0,9945	54,5	-8,7
0,995	58,0	-8,6
0,9955	60,7	-9,5
0,996	62,3	-10,7
0,9965	62,7	-11,4
0,997	61,8	-11,4
0,9975	59,5	-10,5
0,998	55,7	-9,0
0,9985	50,4	-7,0
0,999	44,5	-5,3
0,9995	39,4	-4,2
1	35,5	-3,8
1,0005	32,8	-3,7
1,001	30,6	-3,2
1,0015	28,3	-2,4
1,002	25,4	-1,5
1,0025	22,3	-0,2
1,003	19,9	1,4
1,0035	19,0	3,2
1,004	19,8	4,8
1,0045	21,7	6,0
1,005	24,6	6,5
1,0055	28,0	6,2
1,006	31,9	5,0
1,0065	36,5	3,1
1,007	41,4	0,5
1,0075	45,6	-2,1
1,008	47,9	-3,9
1,0085	48,3	-4,7
1,009	47,4	-4,7
1,0095	46,5	-4,1
1,01	46,2	-3,4
1,0105	46,4	-2,9
1,011	46,7	-2,9
1,0115	46,1	-3,8
1,012	44,7	-5,3
1,0125	43,0	-6,8
1,013	41,4	-8,1
1,0135	40,1	-8,7
1,014	38,7	-8,4
1,0145	36,8	-7,0
1,015	34,7	-4,7
1,0155	33,0	-1,7
1,016	32,6	1,2
1,0165	33,3	3,5
1,017	34,4	5,3
1,0175	35,3	7,0
1,018	35,7	8,7
1,0185	35,0	10,6
1,019	33,0	13,0
1,0195	29,9	15,7
1,02	26,5	18,4
1,0205	23,2	20,5
1,021	20,4	21,6
1,0215	18,0	21,2
1,022	15,5	18,7
1,0225	13,0	14,0
1,023	11,2	7,2
1,0235	10,5	-0,4
1,024	10,5	-7,2
1,0245	11,0	-11,5
1,025	12,2	-13,0
1,0255	14,7	-12,3
1,026	18,1	-10,2
1,0265	21,2	-7,5
1,027	23,7	-5,1
1,0275	26,2	-3,5
1,028	29,2	-3,0
1,0285	32,4	-3,5
1,029	35,2	-4,9
1,0295	36,4	-6,8
1,03	35,8	-8,6
1,0305	34,2	-10,0
1,031	32,3	-10,1
1,0315	30,7	-8,8
1,032	29,2	-6,6
1,0325	28,2	-4,3
1,033	28,3	-2,8
1,0335	29,9	-2,2
1,034	32,9	-2,5
1,0345	36,8	-3,4
1,035	40,3	-4,1
1,0355	42,6	-4,3
1,036	43,0	-3,9
1,0365	41,3	-3,3
1,037	38,0	-2,4
1,0375	34,0	-0,7
1,038	30,9	1,8
1,0385	30,1	4,1
1,039	32,1	5,3
1,0395	36,6	4,7
1,04	42,3	2,8
1,0405	47,5	0,5
1,041	51,1	-1,3
1,0415	53,0	-2,0
1,042	53,7	-2,2
1,0425	54,1	-2,1
1,043	55,0	-2,1
1,0435	56,7	-2,0
1,044	59,3	-1,9
1,0445	62,5	-2,1
1,045	65,8	-2,6
1,0455	68,6	-3,2
1,046	70,6	-3,7
1,0465	71,5	-3,5
1,047	70,9	-2,4
1,0475	68,5	-0,2
1,048	64,5	2,8
1,0485	59,1	6,1
1,049	53,2	9,2
1,0495	47,2	11,5
1,05	41,5	13,3
1,0505	35,9	14,8
1,051	30,1	16,1
1,0515	24,2	16,4
1,052	17,6	15,2
1,0525	10,8	12,6
1,053	4,1	9,0
1,0535	-1,3	5,1
1,054	-4,2	1,8
1,0545	-4,2	-0,3
1,055	-1,2	-1,3
1,0555	4,1	-1,7
1,056	11,3	-2,3
1,0565	20,0	-3,3
1,057	29,2	-4,3
1,0575	37,2	-4,7
1,058	42,9	-3,6
1,0585	46,2	-1,3
1,059	48,2	1,1
1,0595	49,7	2,8
1,06	51,4	3,4
1,0605	53,2	2,6
1,061	55,0	0,1
1,0615	56,6	-3,5
1,062	57,8	-7,5
1,0625	58,2	-10,7
1,063	57,2	-12,2
1,0635	54,8	-12,0
1,064	50,9	-10,8
1,0645	45,9	-9,7
1,065	40,1	-9,0
1,0655	34,7	-8,8
1,066	31,4	-8,5
1,0665	30,9	-8,1
1,067	32,3	-7,4
1,0675	33,9	-6,8
1,068	34,4	-6,2
1,0685	33,3	-5,6
1,069	30,6	-4,9
1,0695	27,2	-3,6
1,07	23,8	-1,5
1,0705	20,8	1,2
1,071	18,0	3,8
1,0715	15,8	5,5
1,072	15,1	5,8
1,0725	16,5	4,9
1,073	20,1	2,9
1,0735	25,2	0,3
1,074	30,2	-2,1
1,0745	34,2	-3,4
1,075	36,8	-3,4
1,0755	38,7	-2,4
1,076	40,5	-0,7
1,0765	42,4	1,5
1,077	44,4	3,6
1,0775	47,0	4,8
1,078	50,3	4,7
1,0785	54,0	3,3
1,079	57,3	1,3
1,0795	59,3	-0,5
1,08	59,6	-1,4
1,0805	57,8	-0,9
1,081	53,8	1,1
1,0815	48,8	4,3
1,082	43,9	7,3
1,0825	40,4	8,8
1,083	38,5	7,9
1,0835	37,1	5,3
1,084	35,7	2,1
1,0845	34,5	-0,5
1,085	33,9	-1,7
1,0855	33,4	-1,4
1,086	32,3	0,1
1,0865	30,1	2,5
1,087	26,9	5,0
1,0875	23,3	6,8
1,088	20,4	7,3
1,0885	19,7	6,3
1,089	21,9	4,5
1,0895	26,9	2,3
1,09	33,8	-0,1
1,0905	40,4	-2,1
1,091	45,0	-3,3
1,0915	47,2	-3,2
1,092	47,6	-2,1
1,0925	47,5	-0,6
1,093	47,5	0,7
1,0935	48,3	1,5
1,094	50,2	1,3
1,0945	53,1	0,2
1,095	56,6	-1,8
1,0955	60,1	-4,3
1,096	62,8	-7,0
1,0965	64,3	-9,6
1,097	63,9	-11,4
1,0975	61,3	-11,9
1,098	56,5	-10,8
1,0985	50,2	-8,7
1,099	43,7	-6,5
1,0995	38,6	-5,2
1,1	35,1	-4,7
1,1005	32,5	-4,5
1,101	30,1	-4,3
1,1015	27,4	-3,9
1,102	24,3	-3,3
1,1025	20,8	-2,1
1,103	16,8	-0,2
1,1035	13,0	2,7
1,104	9,9	5,9
1,1045	8,0	8,6
1,105	7,7	10,1
1,1055	9,0	10,0
1,106	11,6	8,4
1,1065	15,5	5,4
1,107	20,4	1,7
1,1075	25,5	-1,6
1,108	29,9	-3,2
1,1085	33,8	-2,8
1,109	37,5	-1,2
1,1095	40,8	1,4
1,11	43,4	4,2
1,1105	45,4	6,5
1,111	47,9	7,8
1,1115	52,3	7,7
1,112	58,5	5,9
1,1125	65,1	2,9
1,113	69,7	-0,5
1,1135	70,8	-3,1
1,114	68,0	-4,2
1,1145	61,9	-3,8
1,115	53,5	-2,2
1,1155	44,8	-0,2
1,116	37,9	1,5
1,1165	33,3	2,6
1,117	30,4	3,7
1,1175	28,1	5,5
1,118	25,7	7,8
1,1185	22,8	10,0
1,119	19,7	12,0
1,1195	16,4	14,2
1,12	13,1	16,8
1,1205	9,4	19,4
1,121	5,3	21,2
1,1215	1,5	21,2
1,122	-0,7	18,9
1,1225	0,3	14,5
1,123	4,8	9,0
1,1235	12,0	3,8
1,124	19,6	-0,2
1,1245	25,7	-2,8
1,125	29,7	-5,1
1,1255	32,1	-7,4
1,126	33,5	-9,6
1,1265	34,5	-11,2
1,127	35,7	-12,1
1,1275	37,7	-12,7
1,128	40,5	-13,1
1,1285	44,2	-13,4
1,129	47,8	-13,8
1,1295	50,3	-13,9
1,13	49,8	-13,3
1,1305	45,8	-11,9
1,131	38,4	-9,7
1,1315	29,1	-6,8
1,132	19,7	-3,6
1,1325	11,5	-0,8
1,133	5,6	1,2
1,1335	1,8	2,5
1,134	-0,2	3,5
1,1345	-0,6	4,6
1,135	-0,1	5,9
1,1355	0,6	7,6
1,136	0,8	9,7
1,1365	0,5	12,0
1,137	0,0	14,1
1,1375	-0,1	15,6
1,138	0,8	15,8
1,1385	3,6	14,7
1,139	9,1	12,4
1,1395	17,6	9,6
1,14	27,9	6,4
1,1405	36,9	3,1
1,141	42,8	-0,1
1,1415	46,0	-2,8
1,142	49,2	-4,8
1,1425	54,2	-6,0
1,143	60,3	-6,5
1,1435	66,0	-6,4
1,144	70,0	-6,1
1,1445	72,0	-6,2
1,145	72,5	-6,8
1,1455	71,7	-8,0
1,146	69,8	-9,4
1,1465	66,7	-10,4
1,147	62,4	-10,8
1,1475	57,1	-10,4
1,148	51,0	-9,0
1,1485	44,3	-6,6
1,149	37,6	-3,8
1,1495	31,1	-1,3
1,15	25,0	0,7
1,1505	18,9	2,1
1,151	12,3	3,0
1,1515	4,3	3,7
1,152	-5,5	4,8
1,1525	-15,9	6,5
1,153	-25,2	9,0
1,1535	-31,9	12,0
1,154	-35,4	14,8
1,1545	-35,8	17,2
1,155	-33,4	18,8
1,1555	-28,8	19,4
1,156	-22,2	18,7
1,1565	-13,8	16,1
1,157	-3,9	11,7
1,1575	6,3	6,7
1,158	16,1	2,6
1,1585	25,8	0,6
1,159	35,4	0,6
1,1595	45,2	1,9
1,16	55,1	3,8
1,1605	64,8	5,3
1,161	72,8	5,5
1,1615	77,5	4,0
1,162	78,6	0,8
1,1625	77,2	-3,5
1,163	74,6	-7,7
1,1635	71,4	-10,5
1,164	67,3	-10,9
1,1645	62,0	-8,8
1,165	55,4	-4,9
1,1655	48,3	-0,8
1,166	42,3	1,9
1,1665	37,8	2,3
1,167	34,5	0,7
1,1675	31,6	-1,7
1,168	28,5	-3,8
1,1685	24,7	-4,9
1,169	20,0	-4,5
1,1695	14,4	-2,8
1,17	8,5	-0,3
1,1705	3,3	2,3
1,171	-0,8	4,3
1,1715	-3,3	5,3
1,172	-4,0	5,4
1,1725	-2,4	5,0
1,173	1,6	4,3
1,1735	7,6	3,2
1,174	14,3	2,3
1,1745	20,5	2,0
1,175	25,6	2,0
1,1755	29,4	1,7
1,176	32,5	1,0
1,1765	35,6	0,2
1,177	39,2	-0,8
1,1775	43,4	-2,1
1,178	48,2	-3,9
1,1785	53,3	-6,2
1,179	57,7	-8,3
1,1795	60,7	-9,7
1,18	61,5	-10,3
1,1805	60,1	-9,8
1,181	56,7	-8,5
1,1815	51,8	-6,1
1,182	46,4	-3,2
1,1825	41,5	-0,8
1,183	37,5	0,5
1,1835	34,2	0,8
1,184	31,2	0,6
1,1845	28,2	0,4
1,185	24,9	0,5
1,1855	21,0	1,2
1,186	16,2	2,6
1,1865	10,8	4,5
1,187	5,6	7,0
1,1875	1,3	10,0
1,188	-1,4	12,6
1,1885	-2,1	14,2
1,189	-0,7	14,4
1,1895	2,9	13,3
1,19	8,0	11,0
1,1905	13,0	8,2
1,191	16,1	5,6
1,1915	16,9	3,7
1,192	16,5	2,8
1,1925	16,3	2,6
1,193	17,3	3,2
1,1935	19,4	3,7
1,194	22,3	3,0
1,1945	25,7	0,8
1,195	29,2	-2,6
1,1955	32,3	-5,5
1,196	34,4	-7,0
1,1965	35,0	-6,7
1,197	33,8	-5,2
1,1975	31,1	-3,0
1,198	27,1	-0,5
1,1985	22,4	2,1
1,199	17,9	4,0
1,1995	14,5	4,6
1,2	12,4	4,1
1,2005	10,8	3,3
1,201	9,1	2,8
1,2015	6,4	2,6
1,202	2,2	2,6
1,2025	-3,9	2,6
1,203	-11,7	2,7
1,2035	-19,9	3,4
1,204	-26,7	5,4
1,2045	-30,6	8,7
1,205	-31,2	12,6
1,2055	-28,8	16,0
1,206	-24,1	17,8
1,2065	-17,2	18,0
1,207	-7,9	17,1
1,2075	3,7	15,9
1,208	16,7	14,6
1,2085	29,4	12,8
1,209	40,8	10,1
1,2095	50,3	6,8
1,21	58,5	4,0
1,2105	65,8	2,1
1,211	71,3	0,5
1,2115	74,3	-1,3
1,212	75,0	-3,3
1,2125	73,9	-5,0
1,213	71,6	-5,9
1,2135	67,8	-6,0
1,214	61,6	-5,7
1,2145	52,9	-4,8
1,215	41,8	-3,1
1,2155	29,9	-0,8
1,216	18,8	1,5
1,2165	9,8	3,2
1,217	3,0	4,2
1,2175	-1,6	5,0
1,218	-4,5	5,5
1,2185	-6,4	5,8
1,219	-8,2	5,7
1,2195	-10,6	5,1
1,22	-13,3	4,1
1,2205	-15,9	3,1
1,221	-17,3	2,6
1,2215	-16,3	2,6
1,222	-12,6	3,2
1,2225	-6,3	3,8
1,223	1,4	3,9
1,2235	9,0	3,0
1,224	15,3	1,8
1,2245	19,4	1,0
1,225	21,8	0,9
1,2255	23,1	0,9
1,226	24,1	0,5
1,2265	25,1	-0,3
1,227	26,8	-1,2
1,2275	29,5	-2,0
1,228	33,3	-2,8
1,2285	37,5	-3,6
1,229	40,9	-4,6
1,2295	42,2	-5,5
1,23	40,8	-6,2
1,2305	36,6	-6,2
1,231	30,3	-5,1
1,2315	22,7	-2,7
1,232	15,1	0,8
1,2325	9,1	4,3
1,233	5,9	6,9
1,2335	5,1	7,9
1,234	5,6	7,5
1,2345	6,3	6,0
1,235	6,4	4,3
1,2355	5,3	3,3
1,236	2,8	3,6
1,2365	-0,8	5,0
1,237	-5,3	7,1
1,2375	-9,7	9,0
1,238	-12,9	10,3
1,2385	-14,1	10,4
1,239	-13,1	9,4
1,2395	-10,4	7,7
1,24	-6,9	5,7
1,2405	-3,4	4,1
1,241	-0,4	3,2
1,2415	2,3	2,8
1,242	5,3	2,9
1,2425	8,6	3,4
1,243	11,6	4,1
1,2435	14,0	5,0
1,244	16,7	5,9
1,2445	20,5	6,5
1,245	25,5	6,2
1,2455	30,0	4,8
1,246	32,0	2,2
1,2465	30,2	-1,3
1,247	25,5	-5,0
1,2475	20,1	-7,7
1,248	15,7	-8,2
1,2485	12,8	-6,1
1,249	11,2	-2,7
1,2495	10,8	0,0
1,25	10,9	0,6
1,2505	10,9	-0,6
1,251	10,4	-2,7
1,2515	9,7	-4,4
1,252	9,2	-4,7
1,2525	8,7	-3,2
1,253	8,0	0,1
1,2535	6,8	4,2
1,254	5,2	8,4
1,2545	3,8	11,9
1,255	3,1	14,2
1,2555	3,3	15,0
1,256	4,3	13,9
1,2565	6,5	10,9
1,257	9,9	6,7
1,2575	14,2	2,4
1,258	18,5	-0,4
1,2585	22,3	-0,9
1,259	25,3	0,4
1,2595	27,6	2,6
1,26	29,7	4,7
1,2605	32,3	5,7
1,261	35,9	5,2
1,2615	40,3	3,4
1,262	44,7	0,8
1,2625	47,9	-2,2
1,263	49,0	-5,1
1,2635	47,7	-7,3
1,264	44,3	-8,2
1,2645	39,6	-7,7
1,265	34,1	-6,2
1,2655	28,8	-4,8
1,266	25,1	-4,1
1,2665	23,3	-4,1
1,267	22,8	-4,1
1,2675	22,6	-3,6
1,268	21,9	-2,8
1,2685	20,6	-1,5
1,269	18,7	0,2
1,2695	16,0	2,2
1,27	12,1	4,3
1,2705	7,5	6,2
1,271	3,4	8,1
1,2715	0,8	9,7
1,272	0,4	10,8
1,2725	2,3	10,7
1,273	6,3	9,1
1,2735	11,4	6,3
1,274	16,0	3,6
1,2745	19,2	2,1
1,275	21,0	2,0
1,2755	22,1	2,7
1,276	23,4	3,5
1,2765	25,2	4,4
1,277	27,4	5,1
1,2775	29,7	5,3
1,278	31,7	4,6
1,2785	33,3	2,5
1,279	34,7	-0,9
1,2795	35,3	-4,9
1,28	34,8	-8,5
1,2805	33,0	-10,9
1,281	30,4	-11,4
1,2815	27,4	-9,9
1,282	24,4	-7,3
1,2825	22,3	-4,7
1,283	21,3	-3,3
1,2835	20,7	-3,0
1,284	19,8	-3,5
1,2845	18,3	-3,8
1,285	16,1	-3,8
1,2855	13,2	-3,2
1,286	9,9	-1,8
1,2865	6,7	0,1
1,287	3,6	2,7
1,2875	1,0	5,3
1,288	-0,8	7,5
1,2885	-1,1	8,4
1,289	0,7	7,9
1,2895	4,3	6,2
1,29	9,2	3,7
1,2905	14,3	1,5
1,291	18,4	0,9
1,2915	21,3	2,3
1,292	23,5	4,9
1,2925	25,6	7,8
1,293	27,7	10,0
1,2935	29,8	11,6
1,294	32,8	12,3
1,2945	37,3	12,5
1,295	43,2	11,8
1,2955	49,5	10,5
1,296	54,4	8,5
1,2965	56,5	5,6
1,297	55,2	2,1
1,2975	50,7	-1,2
1,298	44,2	-3,3
1,2985	36,9	-3,6
1,299	30,6	-2,5
1,2995	26,2	-1,2
1,3	23,4	-0,6
1,3005	21,2	-1,2
1,301	18,7	-2,8
1,3015	15,5	-4,5
1,302	11,7	-5,2
1,3025	7,3	-4,2
1,303	3,0	-1,2
1,3035	-0,9	3,1
1,304	-3,9	7,9
1,3045	-5,8	12,4
1,305	-6,2	15,8
1,3055	-4,8	17,6
1,306	-1,5	17,9
1,3065	3,7	16,7
1,307	9,8	14,2
1,3075	14,8	10,8
1,308	17,5	6,8
1,3085	17,7	2,4
1,309	16,7	-1,7
1,3095	15,9	-4,2
1,31	16,2	-4,3
1,3105	17,5	-2,7
1,311	19,5	-0,9
1,3115	21,8	-0,4
1,312	23,9	-1,4
1,3125	26,1	-3,8
1,313	28,3	-6,8
1,3135	30,7	-9,8
1,314	32,5	-11,9
1,3145	32,7	-12,7
1,315	30,5	-11,8
1,3155	26,5	-10,1
1,316	21,9	-8,6
1,3165	17,5	-7,8
1,317	13,5	-7,5
1,3175	9,9	-7,3
1,318	6,5	-6,7
1,3185	3,3	-5,4
1,319	-0,2	-2,9
1,3195	-3,8	0,6
1,32	-7,9	4,7
1,3205	-12,3	8,8
1,321	-16,7	12,1
1,3215	-19,7	14,3
1,322	-20,1	15,3
1,3225	-17,1	15,2
1,323	-11,4	13,9
1,3235	-4,3	11,5
1,324	2,6	8,3
1,3245	8,3	5,7
1,325	13,4	4,3
1,3255	18,4	3,5
1,326	23,8	2,8
1,3265	29,9	1,8
1,327	36,4	1,0
1,3275	43,0	0,2
1,328	49,1	-0,9
1,3285	54,2	-2,5
1,329	58,0	-4,5
1,3295	60,3	-6,6
1,33	60,7	-8,4
1,3305	59,0	-9,5
1,331	55,0	-9,4
1,3315	49,2	-7,6
1,332	42,4	-4,6
1,3325	36,2	-1,8
1,333	31,3	-0,9
1,3335	27,1	-2,8
1,334	23,2	-6,5
1,3345	19,3	-10,6
1,335	15,7	-13,5
1,3355	12,3	-14,0
1,336	9,1	-12,1
1,3365	5,6	-8,4
1,337	2,1	-4,0
1,3375	-1,4	-0,1
1,338	-4,6	2,5
1,3385	-7,5	3,2
1,339	-9,6	2,6
1,3395	-10,3	1,2
1,34	-9,3	-0,4
1,3405	-7,2	-2,0
1,341	-5,4	-3,1
1,3415	-5,0	-3,7
1,342	-5,7	-3,8
1,3425	-6,3	-3,9
1,343	-5,8	-4,2
1,3435	-3,4	-4,5
1,344	0,8	-4,9
1,3445	6,3	-5,4
1,345	12,1	-6,1
1,3455	17,4	-7,0
1,346	21,8	-8,0
1,3465	25,2	-8,9
1,347	27,8	-9,3
1,3475	30,0	-8,8
1,348	31,0	-7,4
1,3485	30,5	-5,2
1,349	28,8	-3,1
1,3495	27,4	-1,8
1,35	26,9	-1,5
1,3505	26,7	-1,9
1,351	25,9	-2,6
1,3515	24,5	-3,3
1,352	22,3	-3,7
1,3525	19,3	-3,4
1,353	15,9	-2,3
1,3535	12,3	-0,4
1,354	8,8	2,1
1,3545	6,3	4,8
1,355	5,3	6,9
1,3555	5,8	8,1
1,356	8,0	8,1
1,3565	11,8	7,1
1,357	16,8	5,6
1,3575	21,8	4,2
1,358	25,5	3,2
1,3585	27,4	2,6
1,359	27,6	2,2
1,3595	26,1	1,9
1,36	23,2	1,7
1,3605	19,8	1,2
1,361	17,2	0,1
1,3615	15,8	-1,6
1,362	15,5	-3,9
1,3625	15,5	-6,4
1,363	15,3	-8,3
1,3635	14,6	-9,0
1,364	13,2	-8,0
1,3645	10,3	-5,8
1,365	5,1	-3,0
1,3655	-2,1	-0,5
1,366	-9,8	1,1
1,3665	-16,2	1,7
1,367	-20,6	1,7
1,3675	-23,3	1,4
1,368	-24,5	0,9
1,3685	-24,2	0,3
1,369	-22,1	0,3
1,3695	-18,9	1,4
1,37	-16,3	3,2
1,3705	-15,4	4,9
1,371	-16,3	5,9
1,3715	-17,5	6,0
1,372	-16,8	5,3
1,3725	-13,3	3,8
1,373	-6,9	2,0
1,3735	1,1	0,5
1,374	9,1	-0,1
1,3745	16,0	0,9
1,375	22,0	3,3
1,3755	27,6	6,3
1,376	32,6	8,9
1,3765	37,0	10,6
1,377	41,3	11,3
1,3775	45,5	11,1
1,378	49,2	10,5
1,3785	51,8	9,7
1,379	53,4	8,6
1,3795	54,3	7,2
1,38	53,9	5,6
1,3805	51,2	3,9
1,381	45,5	2,3
1,3815	37,8	1,1
1,382	29,6	0,7
1,3825	23,0	0,6
1,383	18,7	0,1
1,3835	16,2	-1,3
1,384	14,4	-3,5
1,3845	12,9	-5,6
1,385	11,6	-6,6
1,3855	10,3	-6,0
1,386	8,6	-4,3
1,3865	6,5	-2,2
1,387	4,7	0,3
1,3875	3,5	2,7
1,388	2,8	4,7
1,3885	2,6	5,8
1,389	3,1	6,1
1,3895	5,0	5,6
1,39	8,7	4,3
1,3905	13,1	2,8
1,391	17,0	1,8
1,3915	19,6	2,2
1,392	21,3	4,1
1,3925	22,8	7,0
1,393	24,4	10,2
1,3935	26,2	12,7
1,394	28,3	13,6
1,3945	30,8	12,7
1,395	33,5	10,1
1,3955	36,0	6,3
1,396	37,5	2,3
1,3965	37,7	0,0
1,397	36,3	0,4
1,3975	33,4	3,3
1,398	28,6	7,6
1,3985	22,1	11,7
1,399	15,0	14,5
1,3995	8,2	15,5
1,4	2,0	15,1
1,4005	-3,8	14,1
1,401	-9,4	13,1
1,4015	-14,6	12,4
1,402	-19,1	12,3
1,4025	-22,7	13,1
1,403	-25,6	14,8
1,4035	-28,2	16,7
1,404	-30,8	17,9
1,4045	-33,2	17,7
1,405	-34,4	15,8
1,4055	-33,5	12,5
1,406	-30,4	8,2
1,4065	-25,1	3,3
1,407	-18,6	-1,4
1,4075	-12,0	-5,2
1,408	-6,3	-7,4
1,4085	-1,0	-7,9
1,409	4,7	-7,0
1,4095	11,5	-5,2
1,41	19,2	-3,2
1,4105	27,4	-2,0
1,411	35,6	-2,5
1,4115	43,4	-4,7
1,412	50,3	-7,8
1,4125	55,3	-10,9
1,413	57,5	-13,1
1,4135	56,6	-13,8
1,414	53,0	-13,0
1,4145	47,2	-10,6
1,415	39,8	-7,1
1,4155	31,8	-3,7
1,416	24,8	-1,4
1,4165	19,3	-0,6
1,417	15,2	-0,6
1,4175	11,7	-0,8
1,418	8,1	-0,8
1,4185	3,5	-0,2
1,419	-2,8	0,8
1,4195	-10,7	1,8
1,42	-18,6	2,7
1,4205	-25,0	3,4
1,421	-28,5	4,1
1,4215	-28,8	4,8
1,422	-26,5	5,3
1,4225	-22,1	5,7
1,423	-16,4	5,7
1,4235	-9,9	5,3
1,424	-3,8	4,7
1,4245	1,1	4,8
1,425	4,6	5,5
1,4255	7,3	6,4
1,426	9,8	6,8
1,4265	12,2	6,5
1,427	14,7	6,2
1,4275	17,3	5,8
1,428	19,9	4,9
1,4285	22,6	3,3
1,429	25,2	1,2
1,4295	27,3	-0,8
1,43	28,1	-1,9
1,4305	27,4	-2,0
1,431	25,4	-1,0
1,4315	22,4	1,3
1,432	19,1	4,2
1,4325	16,4	6,7
1,433	14,9	7,6
1,4335	14,5	7,0
1,434	14,5	5,4
1,4345	14,2	3,7
1,435	12,8	2,6
1,4355	10,2	2,7
1,436	6,5	4,1
1,4365	2,8	5,9
1,437	-0,9	7,1
1,4375	-4,3	7,2
1,438	-6,9	6,1
1,4385	-7,5	4,4
1,439	-5,5	2,8
1,4395	-1,1	1,4
1,44	4,9	0,0
1,4405	11,0	-1,1
1,441	15,8	-1,7
1,4415	18,8	-1,7
1,442	20,0	-1,4
1,4425	20,8	-1,2
1,443	21,8	-0,8
1,4435	23,7	-0,3
1,444	26,6	-0,1
1,4445	30,2	-0,5
1,445	33,8	-1,8
1,4455	36,6	-4,3
1,446	37,8	-7,1
1,4465	37,5	-9,6
1,447	35,9	-11,1
1,4475	33,2	-11,2
1,448	29,0	-10,0
1,4485	24,0	-7,9
1,449	19,5	-5,5
1,4495	16,8	-3,8
1,45	15,6	-2,9
1,4505	14,4	-2,8
1,451	11,9	-3,0
1,4515	8,2	-3,3
1,452	3,5	-3,1
1,4525	-2,0	-1,8
1,453	-8,3	0,6
1,4535	-14,8	3,9
1,454	-20,8	7,3
1,4545	-25,6	10,1
1,455	-29,4	11,6
1,4555	-32,2	11,6
1,456	-33,1	10,3
1,4565	-31,3	8,4
1,457	-26,5	6,5
1,4575	-20,0	5,3
1,458	-13,3	5,1
1,4585	-7,3	5,9
1,459	-1,5	6,8
1,4595	5,0	7,3
1,46	12,6	7,2
1,4605	21,2	6,4
1,461	30,3	5,0
1,4615	39,2	3,3
1,462	47,3	1,8
1,4625	53,4	0,9
1,463	56,4	0,9
1,4635	56,1	1,9
1,464	52,8	3,3
1,4645	47,5	4,5
1,465	41,1	5,2
1,4655	35,0	5,1
1,466	30,8	3,8
1,4665	28,8	1,0
1,467	28,6	-2,5
1,4675	28,7	-5,6
1,468	28,3	-7,3
1,4685	26,7	-7,4
1,469	23,7	-6,2
1,4695	19,3	-4,3
1,47	13,9	-2,1
1,4705	8,2	-0,1
1,471	3,5	1,7
1,4715	0,8	3,3
1,472	0,8	4,5
1,4725	2,9	5,3
1,473	6,5	5,1
1,4735	10,9	4,2
1,474	16,4	3,0
1,4745	22,9	2,5
1,475	29,9	2,7
1,4755	35,7	3,0
1,476	39,0	3,1
1,4765	39,8	2,9
1,477	39,8	2,6
1,4775	40,5	1,8
1,478	42,9	0,2
1,4785	46,7	-2,3
1,479	50,7	-5,2
1,4795	53,7	-7,8
1,48	55,0	-9,3
1,4805	54,3	-9,5
1,481	51,7	-8,3
1,4815	47,7	-5,5
1,482	43,3	-1,7
1,4825	39,7	2,3
1,483	37,3	5,4
1,4835	35,6	7,3
1,484	33,7	8,1
1,4845	31,1	8,2
1,485	27,9	7,6
1,4855	23,8	6,1
1,486	19,1	4,3
1,4865	14,0	2,9
1,487	9,2	2,1
1,4875	5,0	1,4
1,488	1,8	-0,3
1,4885	-0,3	-2,9
1,489	-0,9	-5,7
1,4895	0,0	-7,9
1,49	2,3	-9,7
1,4905	5,4	-10,9
1,491	8,6	-11,0
1,4915	11,1	-9,7
1,492	12,9	-7,6
1,4925	14,3	-5,5
1,493	15,6	-4,1
1,4935	17,5	-3,4
1,494	20,3	-3,6
1,4945	23,6	-4,7
1,495	26,9	-6,7
1,4955	30,1	-9,0
1,496	33,1	-11,1
1,4965	35,6	-12,1
1,497	37,0	-11,7
1,4975	37,3	-10,1
1,498	36,5	-7,6
1,4985	35,2	-4,3
1,499	34,3	-1,2
1,4995	34,3	1,0
1,5	35,0	1,6
1,5005	36,0	0,4
1,501	36,8	-2,3
1,5015	37,2	-5,8
1,502	36,4	-8,5
1,5025	34,4	-9,0
1,503	32,6	-7,0
1,5035	32,3	-2,8
1,504	34,2	2,4
1,5045	37,1	7,3
1,505	40,0	10,9
1,5055	42,3	12,5
1,506	44,3	12,0
1,5065	46,9	9,7
1,507	49,9	6,4
1,5075	52,5	3,1
1,508	53,3	0,3
1,5085	52,3	-1,8
1,509	49,9	-3,5
1,5095	46,8	-4,9
1,51	43,4	-6,0
1,5105	40,6	-6,5
1,511	39,0	-6,7
1,5115	38,4	-6,7
1,512	38,1	-6,9
1,5125	37,0	-7,3
1,513	34,7	-7,3
1,5135	31,6	-6,7
1,514	28,0	-5,3
1,5145	24,3	-3,3
1,515	20,2	-1,2
1,5155	16,0	0,6
1,516	12,8	1,5
1,5165	11,4	1,4
1,517	11,6	1,2
1,5175	12,3	1,1
1,518	12,7	1,2
1,5185	11,8	0,9
1,519	9,3	0,3
1,5195	5,8	-0,5
1,52	2,0	-0,5
1,5205	-0,9	0,7
1,521	-2,4	3,1
1,5215	-2,8	5,9
1,522	-2,4	8,2
1,5225	-1,7	9,4
1,523	0,1	9,3
1,5235	3,4	8,1
1,524	7,7	6,5
1,5245	11,7	5,6
1,525	14,8	5,7
1,5255	16,8	6,4
1,526	17,5	7,0
1,5265	17,1	7,3
1,527	16,2	6,8
1,5275	16,2	5,7
1,528	17,3	4,0
1,5285	18,9	1,8
1,529	19,9	-0,6
1,5295	20,1	-2,6
1,53	19,7	-3,3
1,5305	19,4	-2,3
1,531	19,5	0,3
1,5315	19,1	4,2
1,532	17,9	8,5
1,5325	16,4	12,0
1,533	15,7	13,8
1,5335	15,9	13,6
1,534	16,7	12,2
1,5345	17,9	10,6
1,535	19,4	9,5
1,5355	19,8	9,3
1,536	16,9	9,5
1,5365	9,8	9,5
1,537	0,0	9,3
1,5375	-9,0	9,1
1,538	-14,8	9,2
1,5385	-16,8	9,7
1,539	-15,7	10,2
1,5395	-11,8	10,3
1,54	-5,5	9,8
1,5405	1,8	9,1
1,541	8,5	8,8
1,5415	14,0	9,3
1,542	18,9	10,3
1,5425	23,7	11,5
1,543	28,4	12,3
1,5435	32,8	12,3
1,544	36,6	11,4
1,5445	39,9	9,4
1,545	42,9	6,6
1,5455	45,9	3,1
1,546	48,9	-0,8
1,5465	51,4	-4,3
1,547	52,1	-7,0
1,5475	50,6	-8,7
1,548	47,1	-8,8
1,5485	42,3	-7,4
1,549	37,0	-5,2
1,5495	31,9	-3,6
1,55	27,1	-3,4
1,5505	22,3	-4,2
1,551	17,5	-5,1
1,5515	13,2	-5,5
1,552	9,5	-5,2
1,5525	6,2	-4,0
1,553	3,1	-2,1
1,5535	-0,1	0,4
1,554	-3,0	3,4
1,5545	-5,0	6,5
1,555	-5,1	9,1
1,5555	-2,7	10,7
1,556	2,2	11,3
1,5565	9,2	10,7
1,557	16,9	9,3
1,5575	23,4	8,1
1,558	27,5	7,9
1,5585	29,4	8,8
1,559	30,0	10,3
1,5595	30,7	12,3
1,56	32,2	14,3
1,5605	35,0	16,0
1,561	38,8	16,7
1,5615	42,4	15,7
1,562	45,1	12,7
1,5625	46,8	8,1
1,563	47,5	2,9
1,5635	46,8	-2,0
1,564	44,2	-5,8
1,5645	39,5	-7,7
1,565	33,0	-7,8
1,5655	26,1	-6,6
1,566	20,1	-5,3
1,5665	15,7	-4,3
1,567	12,6	-3,3
1,5675	10,1	-1,9
1,568	8,1	0,2
1,5685	6,4	2,5
1,569	4,2	5,0
1,5695	-0,3	7,4
1,57	-7,3	9,7
1,5705	-16,0	11,6
1,571	-23,8	13,3
1,5715	-28,8	14,4
1,572	-29,8	14,8
1,5725	-26,4	14,4
1,573	-19,6	13,3
1,5735	-10,8	11,5
1,574	-2,1	9,3
1,5745	4,8	7,5
1,575	9,4	6,4
1,5755	12,6	6,4
1,576	14,8	7,6
1,5765	16,4	9,7
1,577	17,3	11,4
1,5775	18,1	11,9
1,578	19,3	10,3
1,5785	21,7	7,2
1,579	25,0	3,7
1,5795	27,9	1,0
1,58	29,4	-0,5
1,5805	29,5	-0,8
1,581	28,5	-0,4
1,5815	26,4	0,5
1,582	23,5	1,7
1,5825	20,1	2,9
1,583	17,2	4,1
1,5835	15,2	5,4
1,584	14,6	6,9
1,5845	15,3	8,0
1,585	16,8	7,8
1,5855	17,8	6,3
1,586	17,4	4,5
1,5865	15,8	3,5
1,587	13,5	3,8
1,5875	11,4	4,8
1,588	9,7	5,9
1,5885	8,6	6,8
1,589	8,2	7,2
1,5895	8,9	6,7
1,59	10,8	5,0
1,5905	13,1	2,4
1,591	14,8	-0,5
1,5915	15,7	-2,6
1,592	16,6	-3,4
1,5925	18,3	-2,9
1,593	21,0	-1,3
1,5935	24,5	0,5
1,594	28,4	1,6
1,5945	32,5	1,3
1,595	36,6	-0,4
1,5955	40,3	-2,6
1,596	43,3	-4,4
1,5965	45,2	-5,4
1,597	45,8	-5,3
1,5975	45,1	-4,0
1,598	43,2	-1,7
1,5985	40,1	1,4
1,599	35,9	4,3
1,5995	31,2	6,2
1,6	26,3	6,4
1,6005	21,4	5,3
1,601	16,5	3,5
1,6015	11,6	1,7
1,602	6,6	0,2
1,6025	1,3	-0,7
1,603	-4,3	-0,9
1,6035	-9,6	-0,4
1,604	-12,9	1,0
1,6045	-12,7	3,2
1,605	-8,4	5,8
1,6055	-0,7	8,6
1,606	8,8	10,7
1,6065	18,7	11,7
1,607	27,5	11,5
1,6075	33,8	10,5
1,608	37,5	9,5
1,6085	39,3	8,5
1,609	40,2	7,6
1,6095	40,3	6,6
1,61	39,2	5,6
1,6105	37,0	4,3
1,611	34,5	2,5
1,6115	32,6	0,0
1,612	31,3	-3,1
1,6125	29,9	-6,4
1,613	28,1	-9,4
1,6135	25,9	-11,6
1,614	24,0	-12,5
1,6145	22,1	-11,9
1,615	19,6	-9,8
1,6155	16,9	-7,0
1,616	15,2	-4,7
1,6165	14,6	-3,6
1,617	13,7	-3,8
1,6175	11,1	-5,0
1,618	6,9	-6,5
1,6185	2,6	-7,7
1,619	-1,2	-7,7
1,6195	-4,6	-6,3
1,62	-8,0	-3,5
1,6205	-11,0	0,0
1,621	-13,0	3,5
1,6215	-13,4	6,1
1,622	-12,2	7,4
1,6225	-9,1	7,3
1,623	-3,9	5,5
1,6235	2,8	2,6
1,624	9,8	-0,7
1,6245	15,7	-2,8
1,625	20,3	-3,3
1,6255	24,1	-2,2
1,626	27,8	-0,4
1,6265	31,3	1,2
1,627	34,6	1,6
1,6275	38,0	0,1
1,628	42,3	-3,2
1,6285	47,9	-7,1
1,629	54,2	-10,4
1,6295	59,2	-12,3
1,63	61,7	-12,7
1,6305	61,4	-12,1
1,631	58,6	-11,1
1,6315	54,1	-9,6
1,632	48,7	-7,8
1,6325	43,8	-6,2
1,633	40,6	-5,0
1,6335	38,6	-4,4
1,634	37,1	-4,2
1,6345	35,3	-4,5
1,635	32,8	-5,3
1,6355	29,1	-5,8
1,636	24,2	-5,7
1,6365	18,8	-4,3
1,637	13,9	-1,7
1,6375	10,7	1,4
1,638	9,7	4,5
1,6385	11,1	7,0
1,639	14,9	8,5
1,6395	20,6	9,1
1,64	27,3	8,8
1,6405	33,5	8,1
1,641	38,1	7,6
1,6415	41,0	7,3
1,642	42,9	6,8
1,6425	44,4	5,3
1,643	45,4	2,4
1,6435	45,6	-1,5
1,644	45,2	-5,6
1,6445	44,8	-9,3
1,645	45,2	-12,2
1,6455	46,8	-14,2
1,646	49,7	-14,9
1,6465	53,0	-14,4
1,647	54,8	-13,2
1,6475	53,1	-11,7
1,648	46,8	-10,2
1,6485	37,3	-8,6
1,649	27,5	-6,9
1,6495	20,1	-5,7
1,65	16,2	-5,1
1,6505	15,0	-4,9
1,651	15,5	-4,9
1,6515	16,3	-5,0
1,652	16,5	-4,9
1,6525	15,5	-4,5
1,653	13,2	-3,5
1,6535	10,2	-2,1
1,654	7,2	-0,6
1,6545	5,1	0,3
1,655	4,4	0,2
1,6555	5,5	-0,8
1,656	9,1	-2,5
1,6565	15,6	-4,3
1,657	24,2	-5,3
1,6575	32,7	-4,9
1,658	39,1	-3,1
1,6585	42,6	-0,7
1,659	44,6	1,2
1,6595	46,7	2,0
1,66	49,7	1,9
1,6605	53,2	1,1
1,661	56,3	-0,2
1,6615	58,5	-1,9
1,662	59,8	-4,0
1,6625	60,6	-6,0
1,663	60,8	-7,5
1,6635	60,3	-8,4
1,664	58,7	-8,9
1,6645	55,9	-9,3
1,665	51,8	-9,5
1,6655	46,9	-9,3
1,666	42,5	-8,9
1,6665	39,4	-8,8
1,667	37,4	-8,8
1,6675	35,7	-8,8
1,668	33,7	-9,2
1,6685	30,8	-10,0
1,669	26,7	-11,1
1,6695	21,5	-11,7
1,67	16,1	-11,0
1,6705	11,8	-8,4
1,671	9,1	-4,5
1,6715	8,1	-0,1
1,672	8,0	3,8
1,6725	8,2	6,3
1,673	8,6	7,1
1,6735	9,4	6,4
1,674	10,5	5,4
1,6745	11,1	5,3
1,675	10,8	6,4
1,6755	9,9	8,2
1,676	9,1	9,7
1,6765	8,6	10,3
1,677	8,7	9,3
1,6775	9,9	6,4
1,678	12,5	2,3
1,6785	16,2	-2,0
1,679	20,1	-5,8
1,6795	23,6	-9,2
1,68	26,5	-11,5
1,6805	29,0	-12,2
1,681	31,1	-11,1
1,6815	32,5	-8,7
1,682	33,2	-6,1
1,6825	33,6	-3,9
1,683	34,1	-2,7
1,6835	35,2	-2,4
1,684	36,4	-3,1
1,6845	37,2	-4,1
1,685	36,4	-4,9
1,6855	33,3	-4,9
1,686	28,1	-4,5
1,6865	21,9	-3,9
1,687	16,1	-3,5
1,6875	12,0	-3,0
1,688	10,5	-2,5
1,6885	11,8	-2,2
1,689	15,8	-2,1
1,6895	22,4	-2,5
1,69	30,6	-3,2
1,6905	38,4	-3,9
1,691	43,9	-4,5
1,6915	46,8	-5,0
1,692	48,2	-5,5
1,6925	49,7	-6,0
1,693	52,9	-6,2
1,6935	58,9	-5,9
1,694	67,7	-5,3
1,6945	77,7	-5,0
1,695	86,4	-5,5
1,6955	91,8	-7,0
1,696	92,7	-9,0
1,6965	89,2	-10,6
1,697	82,4	-11,1
1,6975	74,0	-10,2
1,698	64,6	-8,1
1,6985	54,8	-5,6
1,699	45,6	-3,5
1,6995	37,6	-2,8
1,7	31,0	-3,8
1,7005	25,1	-6,0
1,701	19,6	-8,7
1,7015	14,6	-11,0
1,702	9,8	-12,6
1,7025	4,7	-13,0
1,703	-0,3	-12,2
1,7035	-4,2	-10,3
1,704	-6,3	-7,7
1,7045	-5,9	-4,6
1,705	-3,1	-1,8
1,7055	1,8	0,1
1,706	8,2	0,8
1,7065	16,0	0,2
1,707	24,9	-1,3
1,7075	34,1	-2,9
1,708	42,2	-3,8
1,7085	47,8	-3,7
1,709	50,5	-3,0
1,7095	51,1	-2,2
1,71	50,8	-1,6
1,7105	50,9	-1,6
1,711	51,8	-2,8
1,7115	53,3	-5,1
1,712	55,2	-8,3
1,7125	56,7	-11,5
1,713	57,5	-13,5
1,7135	57,4	-13,4
1,714	56,3	-11,2
1,7145	54,0	-7,3
1,715	50,5	-2,6
1,7155	46,3	1,6
1,716	43,0	4,3
1,7165	41,2	5,2
1,717	40,4	4,5
1,7175	39,4	2,9
1,718	37,4	0,7
1,7185	33,8	-2,1
1,719	28,7	-4,8
1,7195	22,8	-7,0
1,72	17,2	-8,3
1,7205	12,9	-8,1
1,721	10,0	-6,3
1,7215	8,0	-4,1
1,722	6,0	-3,1
1,7225	3,7	-4,0
1,723	1,7	-6,7
1,7235	1,1	-9,6
1,724	2,0	-11,4
1,7245	3,7	-11,6
1,725	5,6	-10,4
1,7255	7,9	-8,5
1,726	10,7	-6,5
1,7265	14,1	-4,7
1,727	18,1	-3,4
1,7275	22,9	-2,9
1,728	28,6	-3,1
1,7285	34,9	-3,6
1,729	41,5	-3,8
1,7295	47,6	-3,5
1,73	52,3	-2,5
1,7305	55,3	-1,0
1,731	56,2	1,0
1,7315	54,3	3,2
1,732	49,9	5,4
1,7325	44,1	7,0
1,733	38,7	7,2
1,7335	34,2	6,1
1,734	30,1	4,2
1,7345	25,5	1,9
1,735	19,7	-0,9
1,7355	12,8	-4,3
1,736	5,9	-7,9
1,7365	-0,1	-10,7
1,737	-4,3	-12,0
1,7375	-6,6	-11,8
1,738	-6,9	-10,6
1,7385	-5,1	-9,1
1,739	-0,8	-7,9
1,7395	6,2	-7,7
1,74	15,5	-8,2
1,7405	25,8	-9,1
1,741	35,6	-9,4
1,7415	43,2	-8,9
1,742	48,5	-7,7
1,7425	51,8	-6,3
1,743	53,7	-5,0
1,7435	55,1	-4,3
1,744	56,4	-4,2
1,7445	57,7	-5,1
1,745	59,1	-6,9
1,7455	60,8	-9,3
1,746	62,4	-11,7
1,7465	63,1	-13,2
1,747	62,2	-13,5
1,7475	59,5	-12,5
1,748	55,1	-10,4
1,7485	49,6	-7,6
1,749	44,3	-5,0
1,7495	40,2	-3,4
1,75	37,7	-3,0
1,7505	36,1	-3,1
1,751	34,6	-3,3
1,7515	33,0	-3,1
1,752	30,7	-2,5
1,7525	27,8	-1,0
1,753	24,5	0,9
1,7535	21,1	2,9
1,754	18,0	4,6
1,7545	15,7	5,8
1,755	14,9	6,5
1,7555	16,1	6,6
1,756	19,3	6,0
1,7565	24,0	4,6
1,757	29,1	2,4
1,7575	33,3	0,3
1,758	35,7	-1,0
1,7585	36,7	-1,1
1,759	37,4	-0,2
1,7595	38,7	1,2
1,76	40,6	2,5
1,7605	43,3	3,1
1,761	46,8	3,1
1,7615	50,9	2,6
1,762	54,6	1,9
1,7625	56,1	0,9
1,763	53,6	-0,4
1,7635	46,8	-2,1
1,764	36,9	-3,7
1,7645	25,6	-4,4
1,765	14,5	-3,8
1,7655	4,9	-2,3
1,766	-1,8	-0,5
1,7665	-5,2	1,1
1,767	-5,6	2,7
1,7675	-4,3	4,3
1,768	-2,5	5,5
1,7685	-1,4	6,0
1,769	-1,7	6,0
1,7695	-3,1	6,2
1,77	-4,8	7,3
1,7705	-5,6	9,5
1,771	-4,8	12,3
1,7715	-1,4	14,9
1,772	5,2	16,3
1,7725	14,2	15,9
1,773	23,3	12,8
1,7735	30,4	7,2
1,774	34,6	0,4
1,7745	36,8	-5,5
1,775	38,2	-9,4
1,7755	39,3	-11,3
1,776	39,4	-11,8
1,7765	38,7	-11,3
1,777	38,0	-10,4
1,7775	39,0	-9,4
1,778	42,6	-8,9
1,7785	48,5	-9,2
1,779	55,6	-10,1
1,7795	61,9	-11,1
1,78	66,1	-11,6
1,7805	67,1	-11,3
1,781	64,8	-10,1
1,7815	58,9	-8,2
1,782	50,8	-5,9
1,7825	42,6	-4,3
1,783	36,5	-3,9
1,7835	33,2	-5,0
1,784	32,1	-6,6
1,7845	31,8	-8,3
1,785	31,3	-9,4
1,7855	29,6	-9,8
1,786	26,8	-8,9
1,7865	23,4	-7,0
1,787	19,4	-4,3
1,7875	15,7	-1,4
1,788	12,9	1,1
1,7885	11,5	2,7
1,789	12,1	3,0
1,7895	14,6	2,0
1,79	19,1	0,0
1,7905	24,9	-2,1
1,791	30,6	-3,2
1,7915	34,8	-3,0
1,792	37,2	-1,7
1,7925	38,9	-0,2
1,793	40,8	1,2
1,7935	43,5	2,2
1,794	46,9	2,7
1,7945	51,0	2,6
1,795	55,4	2,0
1,7955	59,5	0,7
1,796	61,9	-0,9
1,7965	61,2	-2,2
1,797	57,0	-2,7
1,7975	50,5	-2,3
1,798	43,0	-0,9
1,7985	35,7	1,8
1,799	29,8	5,5
1,7995	26,3	9,3
1,8	25,2	12,0
1,8005	25,3	12,6
1,801	25,4	10,5
1,8015	24,8	6,3
1,802	23,4	1,8
1,8025	20,9	-1,5
1,803	17,1	-2,8
1,8035	12,3	-2,4
1,804	7,8	-1,2
1,8045	4,3	0,2
1,805	2,8	0,6
1,8055	3,7	-0,3
1,806	6,6	-2,4
1,8065	11,1	-5,2
1,807	16,8	-7,7
1,8075	22,9	-9,3
1,808	28,7	-9,5
1,8085	33,4	-8,4
1,809	37,1	-6,6
1,8095	39,8	-4,9
1,81	41,9	-3,9
1,8105	43,5	-3,8
1,811	45,2	-4,7
1,8115	48,2	-6,4
1,812	53,1	-9,0
1,8125	59,5	-11,9
1,813	65,9	-14,6
1,8135	70,7	-16,4
1,814	72,7	-16,9
1,8145	71,4	-15,8
1,815	66,9	-13,5
1,8155	60,3	-10,3
1,816	53,3	-7,3
1,8165	47,4	-4,9
1,817	42,8	-3,3
1,8175	38,8	-2,1
1,818	34,6	-1,0
1,8185	30,1	0,3
1,819	25,0	2,1
1,8195	19,3	4,3
1,82	13,2	6,8
1,8205	7,3	9,2
1,821	2,0	10,8
1,8215	-1,8	10,9
1,822	-3,4	9,2
1,8225	-2,5	6,0
1,823	0,8	1,9
1,8235	5,8	-2,1
1,824	11,6	-4,8
1,8245	17,2	-5,3
1,825	22,3	-3,7
1,8255	26,9	-1,0
1,826	31,4	1,5
1,8265	35,6	3,2
1,827	39,4	3,8
1,8275	43,0	3,3
1,828	46,8	1,9
1,8285	51,0	-0,1
1,829	55,3	-2,5
1,8295	58,4	-5,7
1,83	59,2	-9,8
1,8305	57,3	-14,5
1,831	53,3	-18,2
1,8315	47,9	-19,5
1,832	42,1	-18,0
1,8325	37,1	-14,7
1,833	33,8	-11,1
1,8335	32,0	-8,2
1,834	30,6	-6,5
1,8345	29,1	-5,8
1,835	27,6	-5,5
1,8355	26,1	-4,9
1,836	24,0	-3,7
1,8365	20,9	-2,2
1,837	16,9	-0,8
1,8375	12,7	0,3
1,838	9,4	0,7
1,8385	7,8	0,5
1,839	7,8	-0,3
1,8395	9,7	-1,8
1,84	12,6	-3,7
1,8405	15,5	-5,6
1,841	17,3	-6,6
1,8415	17,6	-6,6
1,842	16,9	-5,7
1,8425	16,3	-4,8
1,843	16,2	-4,2
1,8435	17,2	-4,0
1,844	19,7	-4,2
1,8445	23,4	-5,0
1,845	27,9	-6,6
1,8455	32,6	-8,8
1,846	36,8	-10,9
1,8465	39,8	-12,2
1,847	41,1	-12,3
1,8475	40,8	-11,3
1,848	39,4	-8,8
1,8485	37,9	-5,4
1,849	37,8	-1,7
1,8495	40,0	1,2
1,85	43,9	2,8
1,8505	47,1	3,0
1,851	47,9	2,7
1,8515	46,1	2,3
1,852	41,9	2,0
1,8525	36,0	2,1
1,853	29,2	2,7
1,8535	22,6	3,9
1,854	17,3	5,4
1,8545	13,5	6,4
1,855	10,9	6,2
1,8555	9,2	4,5
1,856	8,8	1,8
1,8565	10,3	-1,2
1,857	14,0	-3,6
1,8575	18,7	-4,8
1,858	23,0	-4,4
1,8585	26,7	-2,6
1,859	30,0	-0,2
1,8595	33,0	2,0
1,86	36,2	3,7
1,8605	39,8	4,3
1,861	43,9	3,6
1,8615	47,9	1,5
1,862	51,2	-1,5
1,8625	52,9	-4,9
1,863	53,0	-7,5
1,8635	52,0	-8,5
1,864	50,3	-7,8
1,8645	47,9	-5,7
1,865	44,2	-2,9
1,8655	39,4	-0,2
1,866	34,6	1,6
1,8665	30,6	1,9
1,867	27,0	0,9
1,8675	22,8	-1,1
1,868	17,8	-3,7
1,8685	11,4	-6,0
1,869	3,6	-7,1
1,8695	-5,3	-6,1
1,87	-14,3	-2,8
1,8705	-22,7	2,3
1,871	-30,1	8,1
1,8715	-35,8	13,3
1,872	-38,9	16,7
1,8725	-38,8	17,8
1,873	-34,9	16,7
1,8735	-27,8	14,2
1,874	-18,8	11,6
1,8745	-9,4	10,0
1,875	-0,6	9,9
1,8755	7,2	10,6
1,876	13,8	11,4
1,8765	19,7	11,3
1,877	25,9	10,0
1,8775	33,8	7,2
1,878	43,3	3,2
1,8785	53,4	-1,7
1,879	62,5	-6,6
1,8795	69,5	-10,4
1,88	74,0	-12,6
1,8805	75,2	-13,1
1,881	72,3	-12,8
1,8815	65,3	-11,8
1,882	55,6	-10,5
1,8825	45,8	-9,7
1,883	37,8	-9,6
1,8835	31,6	-10,3
1,884	26,3	-11,4
1,8845	21,1	-12,3
1,885	15,7	-12,5
1,8855	10,3	-11,2
1,886	5,1	-8,5
1,8865	0,3	-4,9
1,887	-3,6	-1,3
1,8875	-6,0	1,4
1,888	-6,5	2,8
1,8885	-5,1	2,8
1,889	-1,6	1,8
1,8895	4,0	0,3
1,89	11,8	-1,7
1,8905	21,1	-3,5
1,891	30,2	-4,6
1,8915	37,5	-4,7
1,892	42,3	-4,2
1,8925	44,7	-3,8
1,893	46,2	-3,8
1,8935	48,2	-4,3
1,894	51,7	-5,2
1,8945	56,2	-6,5
1,895	60,4	-8,1
1,8955	63,1	-9,9
1,896	64,2	-11,5
1,8965	63,8	-12,6
1,897	62,2	-12,6
1,8975	59,1	-11,3
1,898	54,6	-8,7
1,8985	49,0	-5,0
1,899	43,2	-0,8
1,8995	38,3	3,1
1,9	34,8	5,9
1,9005	32,7	7,5
1,901	32,2	8,0
1,9015	33,2	8,0
1,902	34,7	8,0
1,9025	35,3	8,5
1,903	34,0	9,5
1,9035	31,0	10,8
1,904	26,9	11,9
1,9045	22,9	12,2
1,905	19,3	11,1
1,9055	16,7	8,4
1,906	15,5	4,5
1,9065	16,5	-0,1
1,907	19,2	-4,5
1,9075	22,3	-7,9
1,908	24,3	-9,5
1,9085	24,4	-9,3
1,909	23,3	-7,7
1,9095	21,8	-5,8
1,91	20,9	-4,0
1,9105	20,7	-2,6
1,911	21,6	-2,0
1,9115	23,8	-2,3
1,912	27,5	-3,7
1,9125	32,0	-5,8
1,913	36,4	-7,9
1,9135	40,1	-9,1
1,914	42,4	-9,3
1,9145	43,0	-8,4
1,915	41,6	-6,6
1,9155	39,2	-4,4
1,916	36,9	-2,3
1,9165	35,5	-1,0
1,917	34,8	-0,4
1,9175	34,6	-0,2
1,918	34,9	0,0
1,9185	35,6	0,7
1,919	36,0	1,9
1,9195	35,6	3,0
1,92	34,0	3,5
1,9205	31,4	3,5
1,921	28,4	3,6
1,9215	25,9	4,1
1,922	24,7	4,8
1,9225	25,5	5,2
1,923	28,5	5,2
1,9235	33,3	4,6
1,924	38,6	3,9
1,9245	42,6	3,8
1,925	44,8	4,4
1,9255	45,8	5,1
1,926	46,5	5,2
1,9265	47,2	3,7
1,927	48,2	0,3
1,9275	49,5	-5,1
1,928	51,1	-11,3
1,9285	52,9	-17,5
1,929	54,7	-22,5
1,9295	56,4	-25,3
1,93	57,5	-25,3
1,9305	57,4	-22,8
1,931	55,2	-18,7
1,9315	50,3	-13,7
1,932	43,3	-8,8
1,9325	35,7	-4,7
1,933	29,2	-2,3
1,9335	24,3	-1,4
1,934	21,0	-1,3
1,9345	18,8	-1,6
1,935	17,2	-1,7
1,9355	14,8	-1,0
1,936	10,5	0,8
1,9365	4,2	3,5
1,937	-3,1	6,7
1,9375	-9,7	9,6
1,938	-13,8	12,0
1,9385	-14,6	13,7
1,939	-11,8	14,4
1,9395	-5,9	13,9
1,94	2,2	12,1
1,9405	11,0	9,6
1,941	18,8	7,3
1,9415	24,7	5,8
1,942	29,2	4,7
1,9425	32,8	3,3
1,943	35,6	1,3
1,9435	38,0	-1,5
1,944	41,6	-4,5
1,9445	47,7	-7,5
1,945	56,3	-10,3
1,9455	65,3	-12,8
1,946	72,0	-14,8
1,9465	74,4	-16,1
1,947	72,6	-16,7
1,9475	67,8	-16,5
1,948	61,4	-15,3
1,9485	54,7	-13,1
1,949	48,8	-10,5
1,9495	44,8	-8,3
1,95	42,1	-7,1
1,9505	39,8	-6,9
1,951	37,0	-7,6
1,9515	33,4	-8,9
1,952	29,0	-10,1
1,9525	24,0	-10,4
1,953	18,7	-9,5
1,9535	13,9	-7,5
1,954	10,4	-4,7
1,9545	8,4	-1,9
1,955	8,3	0,4
1,9555	9,8	2,1
1,956	12,8	3,0
1,9565	17,2	2,9
1,957	22,3	2,1
1,9575	27,2	1,1
1,958	30,8	0,8
1,9585	33,0	1,4
1,959	34,3	2,3
1,9595	35,2	3,3
1,96	36,2	3,9
1,9605	37,5	3,8
1,961	39,2	2,9
1,9615	40,9	1,5
1,962	41,9	-0,6
1,9625	41,6	-3,3
1,963	39,5	-6,6
1,9635	35,6	-9,8
1,964	30,3	-11,9
1,9645	24,0	-12,5
1,965	17,2	-11,6
1,9655	10,7	-9,8
1,966	5,8	-8,2
1,9665	3,3	-7,3
1,967	2,7	-7,0
1,9675	3,0	-7,0
1,968	3,7	-7,0
1,9685	4,0	-6,7
1,969	2,6	-5,6
1,9695	-0,7	-3,7
1,97	-5,2	-1,0
1,9705	-9,3	2,3
1,971	-11,9	5,5
1,9715	-12,4	7,8
1,972	-10,0	8,9
1,9725	-4,6	8,8
1,973	3,8	7,7
1,9735	14,1	5,8
1,974	23,9	3,6
1,9745	31,3	1,9
1,975	35,6	1,3
1,9755	37,3	1,0
1,976	37,1	0,6
1,9765	35,6	-0,3
1,977	33,9	-1,4
1,9775	33,8	-2,6
1,978	36,4	-3,8
1,9785	40,9	-5,6
1,979	45,8	-7,9
1,9795	49,4	-10,9
1,98	51,0	-14,2
1,9805	50,8	-17,1
1,981	49,6	-18,5
1,9815	47,5	-17,3
1,982	44,9	-14,0
1,9825	42,7	-10,0
1,983	41,5	-7,1
1,9835	41,5	-5,8
1,984	42,3	-5,8
1,9845	43,3	-5,9
1,985	43,8	-5,4
1,9855	42,9	-4,0
1,986	40,4	-1,8
1,9865	36,6	0,5
1,987	32,5	2,4
1,9875	29,1	3,3
1,988	26,9	3,1
1,9885	25,9	1,8
1,989	26,0	0,1
1,9895	27,3	-1,6
1,99	29,9	-3,2
1,9905	33,0	-4,3
1,991	35,4	-4,5
1,9915	36,8	-3,4
1,992	37,5	-1,4
1,9925	38,3	0,7
1,993	39,2	2,5
1,9935	40,7	3,7
1,994	42,7	3,9
1,9945	45,4	2,8
1,995	48,4	0,5
1,9955	51,4	-2,7
1,996	53,6	-5,8
1,9965	54,6	-7,8
1,997	54,2	-8,7
1,9975	52,1	-8,4
1,998	48,1	-7,3
1,9985	42,3	-5,4
1,999	35,3	-3,2
1,9995	28,3	-1,6
2	22,0	-1,2
2,0005	17,0	-1,6
2,001	13,4	-2,3
2,0015	11,2	-2,8
2,002	9,3	-2,8
2,0025	6,7	-2,3
2,003	3,3	-1,0
2,0035	0,0	1,0
2,004	-1,8	3,3
2,0045	-1,3	5,7
2,005	1,5	7,5
2,0055	6,3	8,1
2,006	12,8	7,2
2,0065	20,6	4,9
2,007	29,1	2,3
2,0075	37,3	0,7
2,008	45,0	1,1
2,0085	52,4	3,2
2,009	59,2	5,6
2,0095	64,1	7,0
2,01	66,5	6,4
2,0105	67,7	4,2
2,011	69,6	1,2
2,0115	73,1	-1,7
2,012	77,0	-4,3
2,0125	79,3	-6,6
2,013	78,5	-8,8
2,0135	73,9	-10,7
2,014	66,3	-12,0
2,0145	56,8	-12,0
2,015	46,3	-10,8
2,0155	35,8	-9,2
2,016	26,1	-8,6
2,0165	17,7	-9,3
2,017	11,0	-10,7
2,0175	6,2	-11,7
2,018	3,3	-11,5
2,0185	1,6	-10,3
2,019	0,1	-8,1
2,0195	-1,7	-5,3
2,02	-3,8	-2,2
2,0205	-6,0	0,7
2,021	-7,7	2,9
2,0215	-8,3	4,1
2,022	-7,1	4,2
2,0225	-4,0	3,0
2,023	0,9	0,6
2,0235	7,0	-2,8
2,024	13,2	-6,0
2,0245	18,6	-7,8
2,025	23,3	-7,9
2,0255	27,6	-6,5
2,026	31,7	-4,4
2,0265	36,1	-2,1
2,027	41,3	-0,1
2,0275	47,5	1,2
2,028	53,8	1,6
2,0285	59,4	1,0
2,029	63,9	-0,4
2,0295	67,4	-2,2
2,03	70,0	-3,4
2,0305	71,3	-3,9
2,031	70,9	-3,5
2,0315	68,5	-2,2
2,032	64,3	-0,3
2,0325	58,7	1,1
2,033	52,7	1,1
2,0335	47,0	0,0
2,034	42,2	-1,3
2,0345	37,8	-2,0
2,035	33,1	-2,0
2,0355	27,4	-1,3
2,036	20,4	-0,2
2,0365	12,6	1,0
2,037	4,9	2,0
2,0375	-1,3	2,8
2,038	-4,3	3,6
2,0385	-3,6	4,6
2,039	-0,2	4,9
2,0395	3,8	3,7
2,04	7,2	0,3
2,0405	9,9	-4,5
2,041	12,4	-9,1
2,0415	15,3	-12,0
2,042	18,6	-12,8
2,0425	22,4	-12,2
2,043	26,6	-11,1
2,0435	31,2	-10,3
2,044	36,3	-10,0
2,0445	42,0	-10,3
2,045	47,5	-10,9
2,0455	52,1	-11,6
2,046	55,2	-12,0
2,0465	56,0	-12,1
2,047	54,4	-11,7
2,0475	50,6	-10,6
2,048	45,2	-8,7
2,0485	38,3	-6,0
2,049	30,6	-3,5
2,0495	23,0	-2,1
2,05	16,3	-2,1
2,0505	11,3	-3,0
2,051	7,7	-4,3
2,0515	5,2	-5,7
2,052	3,1	-6,7
2,0525	0,9	-6,9
2,053	-1,1	-5,9
2,0535	-2,6	-3,8
2,054	-3,4	-1,2
2,0545	-3,2	1,2
2,055	-2,0	2,6
2,0555	0,6	2,8
2,056	4,6	2,0
2,0565	10,0	0,4
2,057	16,1	-1,2
2,0575	21,9	-2,2
2,058	26,8	-2,2
2,0585	30,6	-1,4
2,059	33,1	-0,3
2,0595	34,8	0,8
2,06	36,4	1,6
2,0605	38,2	1,9
2,061	40,0	1,4
2,0615	41,5	0,5
2,062	42,6	-0,4
2,0625	43,3	-0,9
2,063	42,7	-0,7
2,0635	39,7	0,2
2,064	33,8	1,4
2,0645	25,8	2,6
2,065	16,9	3,7
2,0655	8,9	4,5
2,066	3,6	4,8
2,0665	1,6	4,0
2,067	2,2	2,6
2,0675	4,3	1,1
2,068	7,4	0,3
2,0685	11,2	-0,0
2,069	14,9	-0,1
2,0695	17,8	-0,1
2,07	19,5	0,3
2,0705	19,9	0,9
2,071	19,7	1,6
2,0715	19,5	1,8
2,072	20,3	1,7
2,0725	22,9	1,1
2,073	27,5	0,0
2,0735	33,3	-1,6
2,074	38,6	-3,3
2,0745	42,3	-4,6
2,075	44,4	-5,4
2,0755	45,8	-5,7
2,076	46,9	-5,3
2,0765	48,3	-4,4
2,077	50,0	-3,4
2,0775	52,4	-3,1
2,078	55,2	-3,8
2,0785	57,7	-5,8
2,079	59,6	-8,7
2,0795	60,5	-12,0
2,08	60,2	-14,7
2,0805	58,6	-16,1
2,081	55,5	-15,6
2,0815	50,9	-13,0
2,082	45,2	-9,0
2,0825	39,5	-4,9
2,083	35,2	-2,0
2,0835	32,3	-0,7
2,084	30,3	-0,8
2,0845	28,5	-1,6
2,085	26,3	-2,3
2,0855	23,6	-2,2
2,086	20,3	-0,9
2,0865	16,5	1,6
2,087	12,6	4,7
2,0875	8,9	7,7
2,088	6,0	9,9
2,0885	4,1	10,5
2,089	3,3	9,2
2,0895	3,8	5,8
2,09	5,5	1,3
2,0905	8,0	-3,3
2,091	10,3	-6,4
2,0915	11,7	-7,3
2,092	12,3	-6,7
2,0925	12,5	-5,7
2,093	12,7	-5,1
2,0935	12,9	-4,8
2,094	13,8	-5,0
2,0945	16,0	-5,7
2,095	19,6	-7,0
2,0955	24,1	-8,4
2,096	28,2	-9,6
2,0965	31,0	-10,3
2,097	32,3	-10,1
2,0975	32,0	-9,0
2,098	29,8	-7,0
2,0985	25,7	-4,4
2,099	20,8	-2,0
2,0995	16,4	-0,8
2,1	13,1	-0,7
2,1005	10,0	-1,2
2,101	6,3	-1,3
2,1015	1,8	-0,6
2,102	-3,2	0,8
2,1025	-8,6	3,1
2,103	-14,2	5,9
2,1035	-19,4	8,8
2,104	-23,3	11,3
2,1045	-24,8	13,2
2,105	-23,3	14,3
2,1055	-18,9	14,5
2,106	-12,4	13,6
2,1065	-4,3	11,5
2,107	4,8	8,0
2,1075	13,5	3,6
2,108	20,8	-0,4
2,1085	26,1	-3,3
2,109	29,6	-5,0
2,1095	32,2	-6,0
2,11	35,2	-6,7
2,1105	39,3	-7,1
2,111	44,1	-7,4
2,1115	48,6	-8,1
2,112	52,4	-9,9
2,1125	55,7	-13,0
2,113	58,6	-16,6
2,1135	60,5	-19,1
2,114	60,7	-19,4
2,1145	58,7	-17,3
2,115	54,4	-13,2
2,1155	48,8	-8,3
2,116	43,3	-4,0
2,1165	38,9	-1,4
2,117	35,7	-0,7
2,1175	32,8	-1,0
2,118	29,6	-1,5
2,1185	25,5	-1,3
2,119	20,2	0,1
2,1195	14,6	2,5
2,12	9,8	5,1
2,1205	6,8	6,8
2,121	6,1	6,8
2,1215	7,5	5,0
2,122	10,9	2,3
2,1225	15,9	-0,5
2,123	22,1	-3,0
2,1235	28,5	-5,3
2,124	33,8	-6,8
2,1245	37,0	-7,4
2,125	37,8	-6,9
2,1255	37,2	-5,7
2,126	35,9	-4,4
2,1265	34,7	-3,7
2,127	34,1	-4,1
2,1275	34,3	-5,4
2,128	35,2	-7,3
2,1285	36,3	-8,9
2,129	37,1	-10,2
2,1295	36,6	-11,2
2,13	34,3	-11,8
2,1305	30,1	-12,0
2,131	24,8	-11,3
2,1315	19,2	-9,7
2,132	14,1	-7,3
2,1325	10,3	-5,2
2,133	8,2	-4,0
2,1335	7,7	-3,9
2,134	8,0	-4,4
2,1345	8,2	-5,0
2,135	7,6	-5,4
2,1355	5,8	-5,4
2,136	2,5	-4,8
2,1365	-1,7	-3,2
2,137	-6,6	-0,3
2,1375	-12,2	3,4
2,138	-18,6	7,1
2,1385	-25,7	9,7
2,139	-32,7	10,6
2,1395	-38,2	9,7
2,14	-41,1	7,3
2,1405	-40,9	4,2
2,141	-38,3	1,8
2,1415	-34,1	0,9
2,142	-29,1	1,1
2,1425	-23,2	1,4
2,143	-16,0	1,5
2,1435	-7,3	1,3
2,144	2,6	1,0
2,1445	12,3	0,3
2,145	20,5	-1,0
2,1455	26,7	-3,1
2,146	31,7	-5,5
2,1465	36,7	-7,3
2,147	42,2	-7,7
2,1475	47,4	-6,4
2,148	50,9	-4,1
2,1485	51,9	-1,7
2,149	50,9	0,2
2,1495	48,8	0,4
2,15	45,7	-1,1
2,1505	41,2	-3,6
2,151	35,7	-6,3
2,1515	29,8	-8,2
2,152	23,8	-8,8
2,1525	17,7	-8,0
2,153	11,5	-6,0
2,1535	5,6	-3,3
2,154	0,6	-0,3
2,1545	-3,1	2,4
2,155	-4,9	4,3
2,1555	-5,2	4,8
2,156	-4,0	3,8
2,1565	-1,5	1,6
2,157	1,7	-1,2
2,1575	4,8	-3,4
2,158	7,0	-4,4
2,1585	8,5	-4,0
2,159	9,9	-2,8
2,1595	11,7	-1,5
2,16	14,0	-0,4
2,1605	17,3	0,3
2,161	21,3	0,2
2,1615	25,8	-0,6
2,162	30,5	-2,0
2,1625	34,6	-3,8
2,163	37,3	-5,6
2,1635	37,8	-6,8
2,164	36,1	-7,1
2,1645	32,3	-6,4
2,165	26,8	-4,7
2,1655	19,8	-2,7
2,166	12,4	-1,3
2,1665	5,4	-0,9
2,167	-0,8	-1,2
2,1675	-6,3	-1,5
2,168	-11,1	-1,5
2,1685	-15,3	-1,2
2,169	-19,1	-0,3
2,1695	-22,8	1,1
2,17	-26,3	3,4
2,1705	-28,3	6,7
2,171	-27,8	10,4
2,1715	-24,4	13,8
2,172	-18,8	16,2
2,1725	-12,1	17,1
2,173	-4,4	16,5
2,1735	4,1	14,6
2,174	12,4	12,3
2,1745	19,1	11,0
2,175	23,8	11,2
2,1755	27,1	12,4
2,176	29,8	13,7
2,1765	32,3	14,1
2,177	34,9	12,8
2,1775	38,0	9,2
2,178	41,6	3,6
2,1785	45,2	-2,3
2,179	48,2	-7,1
2,1795	49,8	-10,2
2,18	49,5	-12,1
2,1805	47,4	-12,9
2,181	43,9	-12,4
2,1815	39,5	-10,2
2,182	34,8	-6,8
2,1825	30,4	-3,5
2,183	26,9	-1,8
2,1835	23,4	-1,9
2,184	19,3	-3,3
2,1845	14,4	-5,1
2,185	9,3	-6,6
2,1855	4,3	-7,2
2,186	-0,7	-6,4
2,1865	-5,6	-4,3
2,187	-10,1	-1,4
2,1875	-13,6	1,6
2,188	-15,7	4,0
2,1885	-16,1	5,6
2,189	-14,8	6,1
2,1895	-11,7	5,7
2,19	-7,0	4,5
2,1905	-1,5	3,0
2,191	3,7	2,3
2,1915	7,9	3,0
2,192	11,3	4,9
2,1925	14,4	7,2
2,193	17,3	9,2
2,1935	19,9	10,7
2,194	22,7	11,5
2,1945	26,1	11,3
2,195	30,1	10,1
2,1955	34,3	8,0
2,196	37,6	5,2
2,1965	39,1	2,1
2,197	38,4	-0,3
2,1975	35,9	-1,5
2,198	31,9	-0,9
2,1985	27,2	1,5
2,199	23,0	5,0
2,1995	20,5	8,3
2,2	20,2	10,1
2,2005	21,2	10,1
2,201	22,3	8,8
2,2015	23,0	6,9
2,202	22,9	5,4
2,2025	21,8	4,5
2,203	19,4	4,3
2,2035	16,1	4,5
2,204	12,3	4,8
2,2045	8,9	4,8
2,205	6,8	4,4
2,2055	6,2	4,0
2,206	7,3	3,5
2,2065	10,1	2,6
2,207	14,0	0,9
2,2075	17,8	-1,2
2,208	20,3	-3,0
2,2085	21,5	-4,3
2,209	22,5	-4,6
2,2095	24,3	-3,6
2,21	27,2	-1,0
2,2105	31,1	2,5
2,211	35,5	5,6
2,2115	39,8	7,4
2,212	43,3	7,7
2,2125	45,4	6,7
2,213	45,6	5,1
2,2135	43,8	3,4
2,214	40,5	2,3
2,2145	35,5	1,7
2,215	29,3	1,6
2,2155	22,4	1,8
2,216	16,1	1,5
2,2165	10,2	0,6
2,217	3,0	-1,0
2,2175	-6,7	-2,9
2,218	-18,3	-4,7
2,2185	-30,2	-5,6
2,219	-41,0	-5,0
2,2195	-50,1	-2,8
2,22	-56,9	0,2
2,2205	-60,8	3,4
2,221	-60,9	6,4
2,2215	-57,2	8,8
2,222	-49,4	9,7
2,2225	-37,4	8,9
2,223	-22,2	6,6
2,2235	-5,5	3,3
2,224	9,9	-0,1
2,2245	22,2	-2,7
2,225	31,1	-3,8
2,2255	37,7	-3,4
2,226	43,8	-1,6
2,2265	50,1	1,3
2,227	56,0	4,5
2,2275	60,6	6,4
2,228	63,8	5,8
2,2285	66,1	2,3
2,229	68,3	-3,2
2,2295	69,8	-8,7
2,23	68,7	-12,8
2,2305	63,2	-14,8
2,231	53,2	-14,9
2,2315	40,3	-13,3
2,232	27,2	-10,3
2,2325	16,1	-6,9
2,233	8,5	-4,0
2,2335	4,3	-2,3
2,234	2,1	-1,6
2,2345	0,7	-1,4
2,235	-0,7	-1,2
2,2355	-3,0	-0,8
2,236	-6,6	0,3
2,2365	-11,1	2,1
2,237	-15,7	4,5
2,2375	-19,1	7,3
2,238	-20,2	9,8
2,2385	-18,8	11,6
2,239	-15,1	12,0
2,2395	-9,7	10,7
2,24	-3,2	7,6
2,2405	3,7	3,9
2,241	10,0	1,1
2,2415	15,5	0,2
2,242	20,2	0,8
2,2425	23,8	1,8
2,243	25,9	2,6
2,2435	26,1	2,8
2,244	24,8	2,1
2,2445	22,9	0,4
2,245	21,5	-2,0
2,2455	21,6	-5,0
2,246	23,0	-7,8
2,2465	25,0	-9,7
2,247	26,3	-10,2
2,2475	26,1	-9,2
2,248	24,3	-7,1
2,2485	21,3	-4,3
2,249	18,4	-1,4
2,2495	16,8	1,1
2,25	16,8	2,9
2,2505	17,7	4,0
2,251	18,8	4,3
2,2515	19,3	3,6
2,252	18,5	2,2
2,2525	15,9	0,6
2,253	12,0	-0,3
2,2535	7,3	-0,0
2,254	2,7	1,3
2,2545	-0,4	3,1
2,255	-0,8	4,4
2,2555	1,6	4,9
2,256	5,8	4,8
2,2565	10,5	4,1
2,257	14,8	3,3
2,2575	18,2	2,8
2,258	20,5	3,6
2,2585	22,1	5,6
2,259	23,5	8,3
2,2595	25,3	10,8
2,26	27,4	12,7
2,2605	30,1	13,7
2,261	33,3	13,6
2,2615	36,7	12,3
2,262	40,5	9,9
2,2625	44,4	7,1
2,263	47,5	4,8
2,2635	48,7	3,4
2,264	47,1	2,7
2,2645	42,3	1,8
2,265	35,2	0,5
2,2655	27,0	-1,1
2,266	19,7	-2,6
2,2665	14,4	-3,8
2,267	11,1	-4,4
2,2675	8,9	-4,4
2,268	6,8	-3,6
2,2685	4,4	-2,4
2,269	1,0	-0,9
2,2695	-3,6	1,1
2,27	-8,7	3,7
2,2705	-13,5	6,5
2,271	-17,3	9,2
2,2715	-19,9	11,3
2,272	-21,0	12,0
2,2725	-20,4	11,4
2,273	-17,8	9,6
2,2735	-13,0	7,1
2,274	-6,7	5,0
2,2745	-0,3	4,1
2,275	5,2	4,7
2,2755	9,8	6,3
2,276	13,8	8,4
2,2765	17,3	10,1
2,277	20,7	10,9
2,2775	24,3	10,6
2,278	28,7	9,3
2,2785	33,9	7,7
2,279	39,1	6,0
2,2795	43,4	4,7
2,28	46,2	3,9
2,2805	47,1	3,6
2,281	45,7	4,0
2,2815	41,8	4,6
2,282	35,6	5,0
2,2825	28,6	4,5
2,283	22,5	3,0
2,2835	18,1	1,1
2,284	15,3	-0,4
2,2845	13,3	-1,1
2,285	11,1	-1,2
2,2855	8,1	-0,8
2,286	4,3	0,4
2,2865	0,8	2,4
2,287	-1,4	5,3
2,2875	-1,9	8,8
2,288	-1,6	12,1
2,2885	-0,8	14,4
2,289	0,6	15,2
2,2895	2,9	14,1
2,29	6,6	11,2
2,2905	11,8	7,3
2,291	17,4	3,5
2,2915	22,5	0,8
2,292	26,1	-0,9
2,2925	28,1	-1,6
2,293	29,0	-1,5
2,2935	29,5	-0,5
2,294	30,6	0,7
2,2945	32,9	1,6
2,295	36,1	1,7
2,2955	39,4	0,7
2,296	42,1	-0,7
2,2965	43,2	-2,0
2,297	42,7	-2,6
2,2975	40,8	-2,2
2,298	37,5	-0,8
2,2985	33,2	1,8
2,299	28,7	5,4
2,2995	25,2	9,4
2,3	23,3	13,1
2,3005	22,8	15,6
2,301	22,6	16,2
2,3015	21,8	14,6
2,302	19,3	11,1
2,3025	14,8	7,2
2,303	9,0	4,6
2,3035	3,3	3,8
2,304	-1,8	4,3
2,3045	-5,9	4,5
2,305	-9,3	3,5
2,3055	-12,0	1,3
2,306	-13,3	-1,4
2,3065	-13,2	-3,6
2,307	-12,9	-4,9
2,3075	-14,2	-5,3
2,308	-17,8	-5,0
2,3085	-22,2	-3,8
2,309	-25,3	-1,8
2,3095	-25,8	0,7
2,31	-23,7	3,3
2,3105	-19,4	5,1
2,311	-13,2	5,7
2,3115	-5,4	5,1
2,312	3,3	3,8
2,3125	11,6	2,3
2,313	18,8	0,9
2,3135	24,4	0,1
2,314	28,1	0,1
2,3145	29,7	0,6
2,315	29,9	1,6
2,3155	30,1	2,6
2,316	31,5	2,9
2,3165	34,0	2,5
2,317	36,1	1,3
2,3175	36,3	0,0
2,318	34,1	-1,0
2,3185	29,6	-1,4
2,319	23,4	-0,9
2,3195	16,8	0,3
2,32	10,6	2,0
2,3205	5,7	4,1
2,321	3,1	6,5
2,3215	4,3	9,2
2,322	10,6	11,5
2,3225	20,7	12,7
2,323	31,7	11,7
2,3235	40,5	8,1
2,324	45,5	3,2
2,3245	46,6	-1,2
2,325	45,4	-3,7
2,3255	43,8	-4,3
2,326	43,5	-3,7
2,3265	44,5	-2,6
2,327	45,9	-1,8
2,3275	46,9	-1,8
2,328	46,9	-2,8
2,3285	45,8	-4,7
2,329	43,6	-6,7
2,3295	40,3	-8,3
2,33	36,0	-9,1
2,3305	30,7	-8,8
2,331	24,3	-7,4
2,3315	17,2	-5,0
2,332	10,3	-2,2
2,3325	4,7	0,3
2,333	1,2	2,0
2,3335	-0,8	2,8
2,334	-2,8	3,1
2,3345	-5,6	3,1
2,335	-9,0	3,3
2,3355	-12,6	4,1
2,336	-16,5	6,0
2,3365	-20,5	9,0
2,337	-24,4	12,6
2,3375	-27,2	16,2
2,338	-28,2	18,9
2,3385	-26,8	20,5
2,339	-22,9	20,8
2,3395	-17,1	20,0
2,34	-10,0	17,8
2,3405	-2,9	14,4
2,341	2,6	10,4
2,3415	6,3	6,8
2,342	8,7	4,3
2,3425	10,8	2,9
2,343	12,9	2,3
2,3435	14,8	1,8
2,344	16,8	0,9
2,3445	19,7	-0,8
2,345	24,6	-2,8
2,3455	31,6	-4,6
2,346	38,9	-6,0
2,3465	44,0	-6,6
2,347	45,3	-6,5
2,3475	43,4	-5,9
2,348	39,5	-5,0
2,3485	35,2	-3,5
2,349	31,7	-1,8
2,3495	29,7	-0,3
2,35	28,8	0,3
2,3505	28,2	0,1
2,351	27,3	-0,5
2,3515	26,3	-1,0
2,352	24,9	-0,9
2,3525	22,5	0,1
2,353	18,9	2,1
2,3535	14,1	4,6
2,354	9,2	7,1
2,3545	5,4	9,4
2,355	3,8	11,1
2,3555	4,3	12,0
2,356	6,4	11,8
2,3565	10,0	10,5
2,357	14,6	8,1
2,3575	19,0	5,5
2,358	22,5	3,9
2,3585	25,0	3,4
2,359	26,9	3,6
2,3595	28,5	3,8
2,36	30,0	3,5
2,3605	31,6	2,9
2,361	33,6	2,4
2,3615	35,8	1,9
2,362	37,8	1,3
2,3625	39,3	0,4
2,363	39,8	-0,6
2,3635	39,3	-1,1
2,364	38,0	-0,5
2,3645	35,8	1,3
2,365	32,8	3,9
2,3655	29,2	6,7
2,366	26,3	8,3
2,3665	24,8	8,3
2,367	24,2	6,3
2,3675	23,2	2,7
2,368	21,6	-1,5
2,3685	19,6	-4,5
2,369	17,3	-4,8
2,3695	14,5	-2,5
2,37	11,2	1,2
2,3705	7,7	5,3
2,371	4,7	8,8
2,3715	2,5	10,8
2,372	1,4	11,3
2,3725	1,5	10,7
2,373	2,7	9,4
2,3735	5,1	7,9
2,374	8,5	6,7
2,3745	11,8	6,2
2,375	14,5	6,6
2,3755	16,8	7,7
2,376	19,4	9,2
2,3765	22,9	11,0
2,377	27,6	12,6
2,3775	33,4	13,0
2,378	39,2	11,7
2,3785	44,1	8,5
2,379	47,7	4,1
2,3795	49,9	-0,5
2,38	50,9	-4,3
2,3805	50,5	-7,1
2,381	47,9	-8,6
2,3815	43,1	-8,9
2,382	37,3	-8,2
2,3825	32,6	-6,8
2,383	30,0	-5,7
2,3835	29,3	-4,8
2,384	29,0	-4,3
2,3845	28,2	-3,9
2,385	26,5	-3,6
2,3855	23,5	-3,1
2,386	18,8	-1,9
2,3865	12,6	-0,2
2,387	5,6	2,0
2,3875	-0,7	4,3
2,388	-5,1	6,6
2,3885	-6,8	8,7
2,389	-5,5	10,4
2,3895	-1,7	11,2
2,39	4,0	11,0
2,3905	10,6	10,3
2,391	16,8	9,9
2,3915	22,0	10,2
2,392	26,1	10,5
2,3925	29,4	10,1
2,393	32,2	8,9
2,3935	34,8	7,7
2,394	37,7	7,3
2,3945	40,7	7,6
2,395	43,6	8,0
2,3955	46,0	7,3
2,396	47,4	4,7
2,3965	47,6	0,3
2,397	46,5	-4,7
2,3975	44,1	-8,7
2,398	40,4	-10,5
2,3985	35,8	-9,8
2,399	31,3	-7,9
2,3995	28,2	-6,3
2,4	26,6	-6,0
2,4005	25,6	-6,6
2,401	24,6	-7,2
2,4015	23,1	-6,9
2,402	20,7	-5,4
2,4025	16,6	-3,0
2,403	10,8	-0,2
2,4035	4,0	2,7
2,404	-2,4	5,6
2,4045	-7,4	8,1
2,405	-10,2	9,7
2,4055	-10,2	10,0
2,406	-7,3	9,2
2,4065	-2,1	7,5
2,407	3,7	5,7
2,4075	7,8	4,4
2,408	8,8	4,0
2,4085	7,3	4,3
2,409	4,7	4,2
2,4095	2,1	3,3
2,41	0,1	1,8
2,4105	-0,9	0,1
2,411	-0,6	-1,5
2,4115	1,1	-2,9
2,412	4,2	-4,2
2,4125	8,3	-5,1
2,413	12,3	-5,7
2,4135	15,1	-6,0
2,414	15,8	-6,0
2,4145	14,5	-5,6
2,415	11,1	-4,5
2,4155	6,5	-2,7
2,416	2,5	-0,5
2,4165	0,6	1,4
2,417	0,8	2,7
2,4175	2,5	3,2
2,418	5,1	3,1
2,4185	8,6	2,6
2,419	12,8	2,3
2,4195	16,7	2,6
2,42	19,4	3,7
2,4205	20,9	5,2
2,421	22,0	6,7
2,4215	23,2	7,7
2,422	24,8	8,2
2,4225	26,7	8,0
2,423	29,3	7,1
2,4235	33,0	5,3
2,424	37,2	3,1
2,4245	41,0	1,8
2,425	43,7	1,8
2,4255	45,2	2,8
2,426	46,2	3,8
2,4265	47,3	4,0
2,427	49,2	3,2
2,4275	52,1	1,4
2,428	55,7	-1,0
2,4285	59,6	-3,6
2,429	63,7	-5,9
2,4295	68,0	-7,4
2,43	72,5	-8,0
2,4305	76,5	-7,8
2,431	79,0	-6,8
2,4315	78,9	-5,3
2,432	76,2	-3,2
2,4325	71,8	-1,2
2,433	66,9	0,2
2,4335	61,7	0,6
2,434	55,6	0,2
2,4345	48,1	-0,8
2,435	38,9	-1,9
2,4355	28,3	-2,9
2,436	17,0	-3,0
2,4365	6,0	-2,0
2,437	-3,9	0,3
2,4375	-12,3	3,4
2,438	-18,7	6,2
2,4385	-22,5	8,1
2,439	-23,3	8,6
2,4395	-21,1	7,9
2,44	-15,8	6,0
2,4405	-8,4	3,8
2,441	-0,7	2,0
2,4415	5,9	1,5
2,442	11,3	2,2
2,4425	16,2	3,5
2,443	21,5	5,1
2,4435	27,7	6,4
2,444	34,6	7,0
2,4445	41,3	6,2
2,445	47,1	4,0
2,4455	52,0	0,8
2,446	55,9	-2,1
2,4465	58,8	-4,1
2,447	60,2	-4,6
2,4475	59,4	-3,6
2,448	56,3	-1,3
2,4485	50,8	2,2
2,449	44,3	6,1
2,4495	38,6	9,5
2,45	34,8	11,9
2,4505	33,0	13,1
2,451	32,0	13,4
2,4515	30,6	13,0
2,452	28,0	12,1
2,4525	24,0	11,1
2,453	19,2	10,2
2,4535	14,4	9,9
2,454	10,5	10,5
2,4545	7,6	11,1
2,455	5,8	10,8
2,4555	5,5	9,0
2,456	6,5	6,3
2,4565	9,2	3,1
2,457	13,3	0,2
2,4575	17,9	-1,7
2,458	22,2	-2,0
2,4585	26,0	-0,8
2,459	30,1	1,1
2,4595	34,9	3,1
2,46	40,0	4,8
2,4605	44,6	6,0
2,461	48,4	6,3
2,4615	51,3	5,8
2,462	53,4	4,5
2,4625	54,4	2,6
2,463	54,1	0,5
2,4635	52,2	-1,4
2,464	48,8	-2,4
2,4645	44,0	-2,2
2,465	38,3	-0,8
2,4655	32,4	1,2
2,466	27,2	2,6
2,4665	22,8	2,4
2,467	18,7	0,3
2,4675	14,6	-2,8
2,468	10,7	-5,7
2,4685	7,5	-7,0
2,469	4,8	-6,2
2,4695	2,3	-3,9
2,47	-0,2	-0,7
2,4705	-2,3	2,8
2,471	-3,9	6,1
2,4715	-4,6	8,7
2,472	-4,6	10,1
2,4725	-4,1	10,2
2,473	-3,1	9,2
2,4735	-0,9	7,4
2,474	2,6	6,0
2,4745	6,7	5,8
2,475	9,8	6,8
2,4755	11,8	8,1
2,476	13,5	9,4
2,4765	16,0	10,9
2,477	20,1	12,4
2,4775	25,4	13,3
2,478	31,1	12,9
2,4785	36,4	11,4
2,479	40,6	8,9
2,4795	43,4	6,3
2,48	44,4	3,8
2,4805	43,6	1,9
2,481	41,3	0,7
2,4815	37,7	0,1
2,482	32,8	-0,1
2,4825	28,0	0,1
2,483	25,0	0,8
2,4835	24,6	2,2
2,484	26,3	4,3
2,4845	28,6	6,6
2,485	29,8	8,5
2,4855	29,3	10,3
2,486	26,8	12,6
2,4865	23,1	15,4
2,487	19,0	18,8
2,4875	15,6	22,1
2,488	13,7	24,6
2,4885	13,7	25,8
2,489	15,1	25,1
2,4895	17,5	21,7
2,49	20,4	15,0
2,4905	23,2	5,5
2,491	24,8	-4,4
2,4915	24,6	-12,4
2,492	23,0	-16,9
2,4925	21,5	-17,6
2,493	20,8	-15,2
2,4935	21,4	-11,2
2,494	22,8	-7,4
2,4945	25,2	-5,2
2,495	28,4	-4,6
2,4955	32,1	-5,1
2,496	35,5	-5,5
2,4965	37,3	-5,3
2,497	36,7	-4,1
2,4975	33,5	-2,1
2,498	27,9	0,3
2,4985	20,3	2,7
2,499	12,1	4,4
2,4995	4,9	4,7
2,5	0,0	3,5
2,5005	-3,1	1,5
2,501	-5,8	-0,4
2,5015	-9,7	-1,8
2,502	-15,3	-2,6
2,5025	-22,0	-2,4
2,503	-28,1	-1,2
2,5035	-32,3	0,8
2,504	-33,6	3,4
2,5045	-31,5	6,2
2,505	-26,5	8,6
2,5055	-19,4	10,2
2,506	-11,3	10,7
2,5065	-2,5	10,0
2,507	7,6	8,1
2,5075	18,5	5,6
2,508	29,0	3,4
2,5085	37,8	2,1
2,509	44,4	1,6
2,5095	49,3	1,5
2,51	52,5	1,4
2,5105	54,5	0,9
2,511	55,3	0,1
2,5115	55,4	-0,8
2,512	54,9	-1,9
2,5125	54,5	-3,3
2,513	54,0	-5,1
2,5135	53,0	-6,6
2,514	50,8	-7,0
2,5145	46,7	-5,9
2,515	41,0	-3,2
2,5155	34,7	0,3
2,516	29,2	3,5
2,5165	25,4	5,7
2,517	23,3	6,6
2,5175	21,9	6,8
2,518	20,8	6,4
2,5185	19,6	5,7
2,519	18,1	5,2
2,5195	16,2	5,3
2,52	14,0	6,2
2,5205	11,4	7,7
2,521	8,4	9,4
2,5215	5,9	11,3
2,522	4,5	12,8
2,5225	4,7	13,8
2,523	6,8	13,8
2,5235	11,1	12,7
2,524	17,8	11,0
2,5245	25,6	9,5
2,525	33,7	8,8
2,5255	41,3	9,1
2,526	47,8	9,8
2,5265	52,2	10,5
2,527	53,6	10,3
2,5275	52,3	8,5
2,528	49,2	5,4
2,5285	45,3	1,6
2,529	40,8	-1,7
2,5295	35,8	-3,7
2,53	30,0	-4,0
2,5305	23,7	-2,7
2,531	17,1	0,0
2,5315	10,1	3,6
2,532	3,2	7,3
2,5325	-2,8	10,3
2,533	-6,9	11,9
2,5335	-9,4	12,1
2,534	-11,4	11,5
2,5345	-13,3	10,8
2,535	-14,3	10,5
2,5355	-13,7	10,8
2,536	-11,5	12,3
2,5365	-8,8	14,4
2,537	-6,9	16,7
2,5375	-6,1	18,2
2,538	-5,5	18,3
2,5385	-3,8	17,1
2,539	-0,2	14,7
2,5395	5,0	11,3
2,54	11,2	6,9
2,5405	17,3	2,3
2,541	22,4	-1,4
2,5415	25,8	-3,6
2,542	27,4	-4,1
2,5425	28,0	-3,4
2,543	28,3	-1,9
2,5435	28,8	-0,1
2,544	30,0	1,5
2,5445	32,1	2,3
2,545	35,2	2,3
2,5455	38,7	1,4
2,546	41,7	0,3
2,5465	43,8	-0,5
2,547	44,4	-0,1
2,5475	43,4	1,6
2,548	40,4	4,4
2,5485	35,6	7,9
2,549	29,9	10,6
2,5495	25,1	11,1
2,55	22,2	9,4
2,5505	20,7	6,5
2,551	19,9	4,0
2,5515	19,1	2,6
2,552	17,7	2,4
2,5525	15,1	3,4
2,553	10,9	5,4
2,5535	5,7	7,7
2,554	0,5	9,8
2,5545	-3,4	10,9
2,555	-5,3	10,9
2,5555	-5,3	10,0
2,556	-3,7	9,1
2,5565	-0,5	8,3
2,557	4,0	7,7
2,5575	8,6	7,6
2,558	12,4	8,2
2,5585	14,8	9,3
2,559	16,2	10,5
2,5595	17,3	11,8
2,56	18,7	13,2
2,5605	20,8	14,3
2,561	23,6	14,1
2,5615	26,8	11,9
2,562	29,5	7,2
2,5625	31,1	0,9
2,563	31,6	-4,8
2,5635	31,3	-7,8
2,564	30,6	-7,0
2,5645	29,4	-3,0
2,565	27,5	2,6
2,5655	24,9	7,8
2,566	22,3	11,1
2,5665	20,4	11,6
2,567	18,8	9,4
2,5675	17,1	5,7
2,568	15,1	1,9
2,5685	13,1	-0,4
2,569	11,0	-0,1
2,5695	8,2	2,4
2,57	4,3	5,7
2,5705	-0,7	8,0
2,571	-5,7	7,9
2,5715	-9,4	5,5
2,572	-11,1	2,0
2,5725	-10,9	-1,2
2,573	-9,4	-3,4
2,5735	-7,3	-4,9
2,574	-4,9	-5,6
2,5745	-2,8	-5,2
2,575	-0,7	-3,3
2,5755	1,4	-0,2
2,576	4,0	3,3
2,5765	7,0	6,4
2,577	10,6	8,5
2,5775	14,8	9,1
2,578	19,3	8,3
2,5785	23,9	6,5
2,579	27,9	4,0
2,5795	30,6	0,8
2,58	32,0	-2,6
2,5805	32,0	-5,8
2,581	30,9	-8,2
2,5815	28,7	-9,6
2,582	26,1	-9,4
2,5825	23,7	-7,9
2,583	21,8	-5,8
2,5835	20,2	-4,2
2,584	18,9	-3,5
2,5845	18,4	-3,8
2,585	18,6	-4,4
2,5855	18,4	-4,9
2,586	16,5	-4,6
2,5865	12,8	-3,5
2,587	8,0	-1,8
2,5875	3,7	0,1
2,588	0,9	1,7
2,5885	0,0	2,7
2,589	0,8	2,8
2,5895	2,6	1,9
2,59	5,1	0,5
2,5905	7,8	-0,9
2,591	9,7	-1,7
2,5915	10,3	-1,3
2,592	9,8	0,2
2,5925	9,0	2,3
2,593	8,7	4,4
2,5935	9,2	5,8
2,594	10,8	6,2
2,5945	13,7	5,4
2,595	17,3	3,8
2,5955	21,4	1,6
2,596	25,4	-0,3
2,5965	28,6	-1,6
2,597	30,3	-1,9
2,5975	29,6	-1,3
2,598	26,7	-0,0
2,5985	22,0	2,0
2,599	16,4	4,4
2,5995	10,4	6,5
2,6	3,9	7,6
2,6005	-3,3	7,6
2,601	-10,8	7,1
2,6015	-17,4	6,4
2,602	-22,4	6,0
2,6025	-25,8	6,4
2,603	-27,7	7,5
2,6035	-28,9	9,0
2,604	-29,4	10,7
2,6045	-29,0	12,4
2,605	-27,2	13,7
2,6055	-23,6	14,0
2,606	-18,6	12,7
2,6065	-11,8	10,1
2,607	-3,4	6,8
2,6075	6,0	3,8
2,608	14,6	2,3
2,6085	21,4	2,7
2,609	26,8	4,7
2,6095	31,8	7,4
2,61	36,4	9,9
2,6105	40,1	11,1
2,611	42,8	10,0
2,6115	45,3	6,7
2,612	48,0	1,4
2,6125	50,4	-4,6
2,613	51,7	-9,5
2,6135	51,5	-12,0
2,614	49,3	-11,6
2,6145	45,2	-8,8
2,615	39,4	-4,5
2,6155	33,1	-0,2
2,616	27,9	3,1
2,6165	24,8	4,6
2,617	23,3	4,2
2,6175	22,3	2,4
2,618	20,8	-0,2
2,6185	18,3	-2,8
2,619	14,3	-4,8
2,6195	8,5	-5,6
2,62	1,7	-5,1
2,6205	-5,2	-3,3
2,621	-11,1	-0,5
2,6215	-15,1	2,4
2,622	-16,8	4,7
2,6225	-16,0	5,9
2,623	-12,8	5,6
2,6235	-7,6	4,2
2,624	-1,6	2,1
2,6245	3,8	0,3
2,625	7,7	-0,4
2,6255	10,2	-0,1
2,626	12,0	0,7
2,6265	13,4	1,5
2,627	14,6	2,2
2,6275	16,2	2,4
2,628	18,8	2,0
2,6285	22,5	0,5
2,629	26,7	-1,9
2,6295	30,2	-4,9
2,63	32,2	-7,4
2,6305	32,5	-8,7
2,631	31,3	-8,2
2,6315	28,5	-6,1
2,632	24,6	-2,8
2,6325	21,1	0,5
2,633	19,3	2,5
2,6335	19,4	2,8
2,634	20,6	1,8
2,6345	22,4	0,1
2,635	24,9	-1,7
2,6355	28,2	-2,9
2,636	31,6	-3,0
2,6365	34,1	-1,8
2,637	34,6	0,4
2,6375	32,5	3,1
2,638	28,5	5,5
2,6385	24,3	7,1
2,639	21,8	7,5
2,6395	21,6	6,9
2,64	23,1	5,8
2,6405	24,9	4,4
2,641	25,6	3,7
2,6415	25,0	3,9
2,642	23,7	4,9
2,6425	22,3	6,3
2,643	21,1	7,7
2,6435	20,2	8,8
2,644	19,9	9,2
2,6445	20,7	8,5
2,645	22,3	6,4
2,6455	24,5	3,5
2,646	27,3	0,9
2,6465	31,1	-0,5
2,647	35,4	-0,4
2,6475	38,9	0,9
2,648	40,5	2,8
2,6485	40,1	5,0
2,649	38,2	6,8
2,6495	35,5	7,5
2,65	32,2	6,9
2,6505	28,2	5,8
2,651	23,7	5,3
2,6515	19,4	5,8
2,652	15,6	7,2
2,6525	11,7	8,5
2,653	7,2	9,7
2,6535	2,2	11,0
2,654	-2,6	12,8
2,6545	-6,0	15,0
2,655	-7,1	17,0
2,6555	-5,7	17,6
2,656	-2,2	16,2
2,6565	2,5	12,8
2,657	7,6	8,4
2,6575	12,5	4,3
2,658	16,7	1,3
2,6585	20,3	-0,7
2,659	23,3	-1,8
2,6595	25,5	-2,3
2,66	26,9	-2,6
2,6605	28,1	-3,7
2,661	29,8	-6,0
2,6615	32,6	-9,0
2,662	36,2	-11,7
2,6625	39,8	-12,9
2,663	43,2	-12,6
2,6635	45,5	-11,0
2,664	46,2	-9,0
2,6645	44,5	-6,8
2,665	40,4	-4,3
2,6655	35,1	-1,7
2,666	29,9	0,2
2,6665	26,1	0,3
2,667	23,5	-1,4
2,6675	21,5	-4,1
2,668	19,7	-6,1
2,6685	18,5	-6,5
2,669	17,6	-5,4
2,6695	16,0	-3,4
2,67	13,1	-1,6
2,6705	9,0	-0,3
2,671	5,2	0,6
2,6715	2,8	1,4
2,672	2,6	2,4
2,6725	4,5	3,3
2,673	8,1	3,8
2,6735	13,0	3,4
2,674	17,9	2,4
2,6745	21,3	1,4
2,675	23,3	1,1
2,6755	24,8	1,3
2,676	27,1	1,4
2,6765	30,3	0,8
2,677	34,0	-1,1
2,6775	37,6	-3,8
2,678	41,1	-6,3
2,6785	44,2	-8,1
2,679	46,8	-8,8
2,6795	48,4	-8,9
2,68	48,9	-8,3
2,6805	47,9	-6,8
2,681	45,1	-4,6
2,6815	40,0	-1,9
2,682	32,8	0,8
2,6825	24,5	2,8
2,683	16,8	3,5
2,6835	10,8	3,2
2,684	6,8	2,5
2,6845	3,8	2,1
2,685	0,9	1,7
2,6855	-2,7	1,4
2,686	-7,2	1,3
2,6865	-12,0	2,1
2,687	-16,2	3,9
2,6875	-19,7	6,5
2,688	-22,9	9,4
2,6885	-26,0	11,5
2,689	-28,4	12,0
2,6895	-28,8	10,5
2,69	-25,7	7,5
2,6905	-19,3	4,0
2,691	-11,1	1,3
2,6915	-2,9	-0,1
2,692	4,4	-0,5
2,6925	11,1	-0,7
2,693	18,4	-0,8
2,6935	27,1	-0,5
2,694	37,0	-0,2
2,6945	46,5	-0,4
2,695	53,5	-1,8
2,6955	57,5	-4,1
2,696	59,6	-6,7
2,6965	61,3	-8,8
2,697	63,2	-9,8
2,6975	64,6	-9,4
2,698	64,0	-7,8
2,6985	60,7	-5,1
2,699	55,8	-2,3
2,6995	51,3	-0,7
2,7	48,2	-0,5
2,7005	45,8	-1,2
2,701	42,9	-1,8
2,7015	39,1	-2,0
2,702	34,4	-1,8
2,7025	29,1	-1,2
2,703	23,6	0,1
2,7035	18,2	2,1
2,704	13,5	4,6
2,7045	9,7	6,7
2,705	6,9	7,7
2,7055	5,5	7,1
2,706	5,7	5,1
2,7065	8,1	2,5
2,707	12,4	-0,2
2,7075	17,8	-1,9
2,708	22,7	-2,6
2,7085	26,6	-2,3
2,709	29,4	-1,4
2,7095	31,5	-0,3
2,71	33,2	0,8
2,7105	34,8	1,7
2,711	36,3	1,8
2,7115	37,7	0,9
2,712	39,0	-0,5
2,7125	40,3	-2,2
2,713	41,3	-3,6
2,7135	41,1	-4,6
2,714	39,3	-5,3
2,7145	35,7	-5,7
2,715	30,5	-5,4
2,7155	24,6	-4,6
2,716	19,7	-3,7
2,7165	16,8	-3,1
2,717	15,8	-2,8
2,7175	16,0	-2,6
2,718	17,0	-2,6
2,7185	18,6	-2,4
2,719	20,3	-1,7
2,7195	21,8	-0,2
2,72	22,4	1,8
2,7205	22,4	4,0
2,721	22,0	6,1
2,7215	21,6	7,5
2,722	21,3	7,8
2,7225	21,0	6,8
2,723	21,1	4,5
2,7235	21,8	1,5
2,724	23,0	-1,5
2,7245	24,0	-3,5
2,725	24,8	-3,9
2,7255	26,3	-3,2
2,726	29,4	-2,3
2,7265	34,5	-1,8
2,727	41,3	-1,9
2,7275	49,0	-3,0
2,728	56,0	-5,0
2,7285	61,4	-7,4
2,729	64,5	-9,8
2,7295	65,1	-11,6
2,73	62,7	-12,3
2,7305	57,0	-11,5
2,731	48,6	-9,0
2,7315	38,1	-5,0
2,732	26,8	-0,2
2,7325	16,1	4,0
2,733	7,4	6,2
2,7335	0,8	6,2
2,734	-4,4	4,6
2,7345	-9,3	2,6
2,735	-14,1	0,8
2,7355	-18,7	-0,2
2,736	-22,8	0,0
2,7365	-26,0	1,5
2,737	-28,2	3,7
2,7375	-29,2	5,8
2,738	-28,6	7,0
2,7385	-25,7	7,0
2,739	-19,9	6,0
2,7395	-11,3	4,4
2,74	-0,5	2,2
2,7405	10,6	-0,3
2,741	19,9	-2,5
2,7415	26,1	-4,0
2,742	29,8	-4,6
2,7425	32,6	-4,3
2,743	36,3	-3,6
2,7435	41,3	-2,3
2,744	46,5	-0,7
2,7445	51,1	0,7
2,745	55,2	1,0
2,7455	59,1	0,0
2,746	62,7	-1,6
2,7465	65,2	-3,0
2,747	66,1	-3,5
2,7475	65,1	-2,8
2,748	62,2	-1,0
2,7485	57,7	1,6
2,749	52,4	4,3
2,7495	47,9	6,0
2,75	44,9	5,8
2,7505	43,2	3,5
2,751	41,8	0,2
2,7515	40,1	-2,7
2,752	37,5	-4,3
2,7525	33,7	-4,1
2,753	28,8	-2,4
2,7535	23,3	0,3
2,754	18,3	3,5
2,7545	14,2	6,1
2,755	11,2	7,2
2,7555	9,5	6,4
2,756	9,0	4,0
2,7565	10,4	0,8
2,757	13,8	-2,2
2,7575	18,3	-3,7
2,758	22,9	-3,1
2,7585	26,8	-0,7
2,759	29,9	2,4
2,7595	32,2	5,3
2,76	34,0	7,3
2,7605	35,5	7,9
2,761	36,5	6,8
2,7615	36,8	4,0
2,762	35,9	-0,3
2,7625	34,3	-5,6
2,763	32,3	-10,8
2,7635	29,9	-15,0
2,764	26,6	-17,7
2,7645	21,4	-18,3
2,765	14,1	-16,3
2,7655	5,7	-12,1
2,766	-1,8	-7,0
2,7665	-6,8	-2,8
2,767	-9,2	-0,4
2,7675	-9,5	0,3
2,768	-9,0	0,0
2,7685	-8,5	-0,4
2,769	-8,2	-0,1
2,7695	-7,4	1,4
2,77	-5,5	3,8
2,7705	-2,5	6,8
2,771	1,4	9,9
2,7715	5,4	12,4
2,772	9,2	13,3
2,7725	12,8	11,9
2,773	16,7	8,4
2,7735	22,2	3,3
2,774	29,2	-1,7
2,7745	36,8	-5,0
2,775	43,3	-6,1
2,7755	47,5	-5,8
2,776	50,1	-5,3
2,7765	52,1	-5,2
2,777	54,5	-5,3
2,7775	57,6	-5,8
2,778	60,9	-6,5
2,7785	64,0	-7,7
2,779	66,6	-9,2
2,7795	68,8	-10,7
2,78	70,4	-11,6
2,7805	70,9	-11,4
2,781	69,7	-9,8
2,7815	66,3	-7,1
2,782	60,8	-3,6
2,7825	54,8	-0,3
2,783	49,7	1,6
2,7835	46,0	2,0
2,784	43,2	1,7
2,7845	40,6	1,4
2,785	37,9	1,8
2,7855	34,6	3,2
2,786	30,7	5,4
2,7865	26,3	8,0
2,787	21,9	10,4
2,7875	17,6	11,8
2,788	13,8	11,7
2,7885	10,8	9,6
2,789	8,8	5,9
2,7895	8,3	1,4
2,79	10,1	-2,6
2,7905	14,0	-5,3
2,791	18,5	-6,2
2,7915	22,4	-5,2
2,792	25,3	-2,8
2,7925	28,1	0,1
2,793	31,3	2,7
2,7935	35,3	4,7
2,794	39,9	5,5
2,7945	44,5	4,7
2,795	48,5	1,9
2,7955	51,4	-2,9
2,796	53,3	-8,7
2,7965	54,5	-14,0
2,797	55,5	-17,3
2,7975	55,8	-18,0
2,798	54,4	-16,4
2,7985	50,8	-13,3
2,799	45,6	-9,9
2,7995	40,5	-7,4
2,8	36,9	-6,6
2,8005	34,5	-6,9
2,801	32,4	-7,3
2,8015	29,7	-7,3
2,802	26,0	-6,7
2,8025	21,3	-5,3
2,803	16,2	-2,9
2,8035	11,4	0,4
2,804	7,8	4,3
2,8045	5,8	8,0
2,805	5,7	10,9
2,8055	7,5	12,8
2,806	11,0	13,4
2,8065	15,6	12,2
2,807	20,3	8,9
2,8075	23,9	4,4
2,808	25,7	-0,1
2,8085	25,9	-3,2
2,809	25,3	-4,3
2,8095	24,8	-3,6
2,81	24,9	-1,9
2,8105	26,3	-0,1
2,811	29,1	1,1
2,8115	33,1	1,4
2,812	37,8	0,8
2,8125	42,8	-0,6
2,813	47,1	-2,2
2,8135	49,7	-3,5
2,814	49,9	-3,6
2,8145	48,2	-2,4
2,815	45,3	-0,0
2,8155	42,4	2,9
2,816	40,5	5,4
2,8165	40,0	6,6
2,817	39,9	6,5
2,8175	39,1	5,7
2,818	37,2	5,0
2,8185	35,2	4,9
2,819	33,7	5,5
2,8195	32,8	6,9
2,82	31,5	9,1
2,8205	29,0	11,5
2,821	25,6	13,5
2,8215	21,5	14,6
2,822	17,6	14,1
2,8225	14,9	12,0
2,823	14,9	8,6
2,8235	18,2	4,9
2,824	23,2	1,6
2,8245	27,8	-0,7
2,825	30,8	-1,8
2,8255	32,4	-1,9
2,826	33,3	-1,2
2,8265	33,8	0,1
2,827	34,3	1,6
2,8275	35,5	2,6
2,828	37,6	2,9
2,8285	40,6	2,6
2,829	43,6	2,0
2,8295	45,8	1,5
2,83	46,6	1,1
2,8305	45,4	1,2
2,831	42,2	2,1
2,8315	37,0	3,7
2,832	30,1	5,5
2,8325	23,1	6,2
2,833	17,6	5,0
2,8335	14,0	1,8
2,834	11,5	-2,8
2,8345	9,2	-7,6
2,835	7,4	-11,4
2,8355	6,9	-13,2
2,836	7,9	-12,7
2,8365	9,6	-10,2
2,837	10,9	-6,4
2,8375	11,1	-1,8
2,838	10,8	2,4
2,8385	11,3	5,6
2,839	13,9	7,7
2,8395	19,3	8,8
2,84	26,8	9,1
2,8405	34,3	8,6
2,841	39,8	7,8
2,8415	42,3	7,3
2,842	42,8	7,3
2,8425	42,8	7,7
2,843	42,8	8,5
2,8435	43,0	9,4
2,844	43,6	9,9
2,8445	44,4	9,0
2,845	44,9	6,3
2,8455	44,6	2,1
2,846	43,2	-2,1
2,8465	40,4	-4,8
2,847	35,9	-5,3
2,8475	28,9	-4,2
2,848	19,4	-2,3
2,8485	8,1	0,2
2,849	-3,0	3,4
2,8495	-11,7	6,7
2,85	-16,8	9,2
2,8505	-18,4	10,8
2,851	-17,8	12,0
2,8515	-16,2	13,2
2,852	-14,3	14,3
2,8525	-12,4	15,2
2,853	-10,5	15,8
2,8535	-8,5	15,7
2,854	-6,4	14,9
2,8545	-3,6	13,5
2,855	0,8	12,2
2,8555	6,8	11,3
2,856	14,8	10,8
2,8565	25,0	10,6
2,857	37,0	10,0
2,8575	48,6	8,9
2,858	57,0	7,2
2,8585	60,8	4,9
2,859	61,1	2,1
2,8595	59,8	-0,7
2,86	58,2	-3,1
2,8605	56,9	-5,3
2,861	56,2	-7,4
2,8615	56,0	-9,7
2,862	56,3	-11,8
2,8625	56,6	-13,4
2,863	56,3	-14,5
2,8635	55,3	-14,7
2,864	53,1	-13,7
2,8645	49,5	-11,4
2,865	44,7	-8,1
2,8655	39,7	-4,5
2,866	35,8	-1,5
2,8665	33,5	-0,1
2,867	31,7	-0,0
2,8675	29,1	-0,4
2,868	25,4	-0,7
2,8685	20,9	-0,4
2,869	16,2	0,5
2,8695	11,4	2,0
2,87	6,8	4,1
2,8705	2,5	6,6
2,871	-1,1	9,3
2,8715	-3,5	11,7
2,872	-4,5	13,2
2,8725	-4,1	13,2
2,873	-2,2	11,3
2,8735	1,2	7,9
2,874	5,6	4,1
2,8745	10,2	1,4
2,875	14,8	0,9
2,8755	19,8	2,6
2,876	25,3	5,5
2,8765	31,0	8,5
2,877	35,8	10,7
2,8775	39,5	11,0
2,878	42,1	8,8
2,8785	43,5	4,0
2,879	43,7	-2,0
2,8795	42,9	-7,8
2,88	41,5	-11,9
2,8805	39,8	-13,8
2,881	37,5	-13,5
2,8815	34,0	-11,3
2,882	29,3	-8,2
2,8825	24,6	-5,2
2,883	21,6	-3,5
2,8835	20,5	-3,1
2,884	20,5	-3,7
2,8845	20,4	-4,5
2,885	19,8	-4,7
2,8855	18,9	-3,8
2,886	17,8	-1,5
2,8865	16,6	2,4
2,887	15,3	7,3
2,8875	13,6	12,0
2,888	11,8	15,3
2,8885	10,1	16,9
2,889	9,1	16,7
2,8895	9,5	14,9
2,89	12,2	11,9
2,8905	16,9	8,5
2,891	21,9	5,7
2,8915	25,4	4,4
2,892	26,7	4,6
2,8925	26,1	5,4
2,893	24,6	6,3
2,8935	23,3	6,3
2,894	23,3	5,3
2,8945	24,7	3,0
2,895	27,3	-0,0
2,8955	30,6	-3,0
2,896	33,9	-5,3
2,8965	36,8	-6,2
2,897	38,9	-5,3
2,8975	40,0	-2,7
2,898	40,2	1,4
2,8985	39,4	6,3
2,899	37,8	11,1
2,8995	36,2	14,7
2,9	35,5	16,4
2,9005	35,7	16,4
2,901	36,2	15,3
2,9015	36,5	13,6
2,902	35,7	11,9
2,9025	32,3	10,7
2,903	25,6	10,7
2,9035	15,6	11,9
2,904	4,2	13,7
2,9045	-6,2	15,3
2,905	-13,9	16,0
2,9055	-18,8	15,0
2,906	-21,1	12,4
2,9065	-21,3	8,6
2,907	-19,6	4,6
2,9075	-16,3	1,6
2,908	-12,0	0,3
2,9085	-7,1	0,8
2,909	-1,4	2,4
2,9095	4,7	4,4
2,91	10,5	6,3
2,9105	15,8	7,2
2,911	20,8	6,9
2,9115	25,3	5,4
2,912	28,9	3,2
2,9125	30,4	0,6
2,913	28,9	-2,2
2,9135	24,9	-4,8
2,914	20,3	-6,9
2,9145	16,9	-8,2
2,915	15,3	-7,8
2,9155	14,8	-5,6
2,916	14,9	-2,5
2,9165	15,3	0,4
2,917	15,9	2,2
2,9175	16,8	2,9
2,918	17,8	3,0
2,9185	18,4	3,1
2,919	18,0	3,7
2,9195	16,3	5,3
2,92	13,7	7,5
2,9205	11,1	9,7
2,921	9,6	11,1
2,9215	10,0	11,2
2,922	12,2	9,9
2,9225	15,4	7,8
2,923	19,0	5,1
2,9235	22,5	1,8
2,924	25,7	-1,5
2,9245	28,3	-4,0
2,925	31,0	-5,0
2,9255	34,6	-4,9
2,926	39,3	-3,9
2,9265	44,8	-2,5
2,927	51,1	-0,7
2,9275	57,9	1,0
2,928	63,8	1,9
2,9285	67,3	1,7
2,929	67,6	0,3
2,9295	65,3	-1,3
2,93	61,5	-2,2
2,9305	57,1	-1,8
2,931	52,3	0,1
2,9315	46,9	3,2
2,932	40,8	7,2
2,9325	34,8	10,9
2,933	29,6	13,4
2,9335	25,0	14,4
2,934	20,7	13,9
2,9345	16,2	12,1
2,935	11,3	9,1
2,9355	6,3	6,0
2,936	1,8	4,0
2,9365	-1,6	4,1
2,937	-3,7	6,3
2,9375	-4,5	9,6
2,938	-4,3	12,6
2,9385	-2,9	14,1
2,939	-0,6	13,3
2,9395	2,8	10,3
2,94	7,5	5,6
2,9405	13,1	0,4
2,941	18,2	-3,9
2,9415	21,7	-6,1
2,942	23,9	-6,3
2,9425	25,5	-5,1
2,943	27,3	-3,3
2,9435	29,3	-1,3
2,944	31,9	0,6
2,9445	34,7	1,9
2,945	37,3	2,6
2,9455	39,3	2,6
2,946	40,3	2,2
2,9465	40,6	1,7
2,947	40,1	1,4
2,9475	38,3	1,5
2,948	34,6	1,9
2,9485	28,8	2,6
2,949	22,3	3,8
2,9495	16,8	5,1
2,95	13,1	5,9
2,9505	10,8	5,5
2,951	8,6	3,9
2,9515	5,9	1,9
2,952	2,6	0,6
2,9525	-1,1	0,6
2,953	-5,3	1,8
2,9535	-9,4	3,4
2,954	-13,2	4,3
2,9545	-15,6	4,3
2,955	-16,5	3,5
2,9555	-15,3	1,9
2,956	-11,6	-0,3
2,9565	-5,1	-3,2
2,957	3,9	-6,3
2,9575	13,7	-8,8
2,958	22,1	-9,8
2,9585	27,5	-9,3
2,959	30,2	-7,8
2,9595	31,6	-6,2
2,96	33,2	-4,9
2,9605	35,8	-4,5
2,961	39,1	-4,7
2,9615	42,2	-5,5
2,962	44,3	-6,4
2,9625	45,1	-7,3
2,963	44,6	-8,2
2,9635	42,7	-8,9
2,964	39,5	-9,2
2,9645	35,0	-9,0
2,965	28,9	-8,0
2,9655	22,0	-6,8
2,966	15,4	-5,9
2,9665	10,2	-5,7
2,967	5,9	-5,8
2,9675	1,4	-5,7
2,968	-4,4	-5,4
2,9685	-11,5	-4,8
2,969	-18,9	-3,7
2,9695	-25,8	-1,8
2,97	-31,3	0,6
2,9705	-34,9	3,3
2,971	-36,4	5,9
2,9715	-35,2	7,7
2,972	-31,2	8,3
2,9725	-24,9	7,9
2,973	-16,7	6,7
2,9735	-6,9	4,9
2,974	3,5	2,8
2,9745	13,1	1,3
2,975	20,7	0,6
2,9755	26,8	0,9
2,976	32,0	1,8
2,9765	37,0	3,3
2,977	41,7	4,7
2,9775	46,2	5,1
2,978	50,2	3,9
2,9785	53,0	1,3
2,979	54,6	-1,8
2,9795	55,7	-4,7
2,98	56,5	-6,5
2,9805	56,2	-7,1
2,981	53,8	-6,3
2,9815	48,8	-4,3
2,982	41,8	-1,5
2,9825	34,5	0,8
2,983	28,3	1,4
2,9835	23,8	-0,1
2,984	20,9	-2,8
2,9845	19,0	-5,5
2,985	17,8	-7,3
2,9855	16,9	-7,9
2,986	16,0	-7,3
2,9865	14,6	-5,5
2,987	12,4	-2,8
2,9875	9,7	0,2
2,988	6,9	3,0
2,9885	4,8	5,5
2,989	3,7	7,3
2,9895	3,8	8,2
2,99	5,7	7,8
2,9905	9,3	6,6
2,991	13,3	5,5
2,9915	15,7	5,6
2,992	15,8	7,0
2,9925	14,7	8,8
2,993	14,0	10,1
2,9935	14,2	10,6
2,994	15,1	10,0
2,9945	16,0	7,7
2,995	16,5	3,3
2,9955	17,0	-3,2
2,996	17,9	-10,3
2,9965	19,7	-16,1
2,997	21,9	-18,8
2,9975	24,3	-17,8
2,998	26,5	-14,2
2,9985	27,7	-9,3
2,999	27,6	-4,9
2,9995	26,4	-2,1
3	24,8	-1,3
3,0005	23,1	-1,8
3,001	21,8	-2,6
3,0015	20,5	-2,6
3,002	19,4	-1,4
3,0025	18,5	1,2
3,003	18,2	5,1
3,0035	18,3	9,8
3,004	18,1	14,4
3,0045	17,2	18,0
3,005	16,0	19,4
3,0055	15,5	18,2
3,006	16,7	14,9
3,0065	21,0	10,7
3,007	28,5	7,1
3,0075	37,4	4,4
3,008	44,7	1,7
3,0085	48,2	-2,6
3,009	48,6	-8,7
3,0095	48,0	-15,1
3,01	48,1	-19,5
3,0105	49,8	-21,4
3,011	52,7	-21,5
3,0115	56,0	-21,1
3,012	58,9	-20,9
3,0125	60,8	-21,1
3,013	61,6	-20,8
3,0135	61,7	-19,5
3,014	61,5	-17,3
3,0145	61,1	-14,3
3,015	59,5	-10,5
3,0155	56,4	-6,4
3,016	52,2	-3,0
3,0165	48,0	-1,3
3,017	44,5	-1,2
3,0175	42,3	-2,0
3,018	41,5	-3,1
3,0185	41,6	-3,8
3,019	41,5	-3,5
3,0195	40,1	-2,0
3,02	36,5	0,0
3,0205	30,3	1,4
3,021	21,7	1,8
3,0215	12,2	1,3
3,022	4,0	0,8
3,0225	-0,9	0,4
3,023	-1,9	0,2
3,0235	0,2	0,0
3,024	3,9	0,0
3,0245	7,4	0,7
3,025	9,6	2,5
3,0255	10,5	4,8
3,026	10,8	6,7
3,0265	11,3	7,4
3,027	12,9	6,8
3,0275	16,6	4,7
3,028	22,4	1,3
3,0285	29,6	-2,9
3,029	37,1	-7,0
3,0295	43,7	-10,3
3,03	49,3	-12,3
3,0305	53,8	-13,1
3,031	56,9	-12,5
3,0315	57,5	-10,4
3,032	55,3	-7,4
3,0325	51,2	-4,2
3,033	46,8	-1,9
3,0335	42,9	-1,0
3,034	39,4	-1,6
3,0345	36,0	-3,2
3,035	32,6	-5,2
3,0355	29,0	-6,6
3,036	25,0	-6,6
3,0365	20,3	-5,0
3,037	14,6	-2,4
3,0375	7,6	0,1
3,038	-0,2	2,0
3,0385	-7,3	2,9
3,039	-12,1	3,0
3,0395	-13,9	2,3
3,04	-12,9	0,8
3,0405	-9,7	-1,5
3,041	-5,5	-3,7
3,0415	-1,2	-5,0
3,042	3,2	-5,1
3,0425	7,8	-4,3
3,043	13,2	-3,0
3,0435	19,3	-1,4
3,044	26,3	0,2
3,0445	34,1	1,5
3,045	42,1	2,4
3,0455	49,8	3,0
3,046	56,8	3,4
3,0465	62,3	3,8
3,047	65,9	4,0
3,0475	66,8	4,3
3,048	64,9	4,8
3,0485	61,0	5,8
3,049	56,7	7,0
3,0495	53,7	7,3
3,05	52,1	6,1
3,0505	51,1	3,3
3,051	49,2	-0,6
3,0515	45,7	-4,5
3,052	39,9	-8,1
3,0525	31,9	-10,7
3,053	22,5	-11,7
3,0535	12,9	-11,2
3,054	4,2	-9,3
3,0545	-3,0	-6,7
3,055	-7,8	-4,0
3,0555	-9,6	-2,1
3,056	-8,8	-1,1
3,0565	-5,8	-1,2
3,057	-1,3	-2,1
3,0575	3,7	-3,1
3,058	8,2	-3,7
3,0585	11,4	-3,6
3,059	13,5	-3,2
3,0595	15,4	-2,5
3,06	17,7	-1,7
3,0605	21,5	-0,9
3,061	27,6	-0,5
3,0615	35,8	-0,4
3,062	45,1	-1,0
3,0625	53,8	-2,3
3,063	60,2	-3,9
3,0635	63,3	-5,3
3,064	63,0	-5,9
3,0645	59,9	-5,5
3,065	55,3	-3,8
3,0655	50,5	-1,3
3,066	46,7	0,9
3,0665	44,8	1,9
3,067	44,5	1,7
3,0675	44,8	1,2
3,068	44,9	1,1
3,0685	44,6	1,7
3,069	43,8	2,6
3,0695	41,7	3,2
3,07	38,0	2,8
3,0705	32,9	1,6
3,071	27,8	0,5
3,0715	24,0	0,1
3,072	22,3	0,2
3,0725	22,4	0,0
3,073	24,2	-1,1
3,0735	27,3	-3,2
3,074	31,2	-5,5
3,0745	35,1	-7,3
3,075	39,1	-7,9
3,0755	43,7	-7,1
3,076	48,3	-5,3
3,0765	52,2	-3,0
3,077	54,8	-1,2
3,0775	56,5	-0,8
3,078	58,2	-2,5
3,0785	60,3	-5,9
3,079	63,2	-9,8
3,0795	66,7	-12,4
3,08	70,1	-13,0
3,0805	72,8	-11,7
3,081	73,6	-9,2
3,0815	71,8	-5,8
3,082	67,8	-2,1
3,0825	62,9	1,1
3,083	58,6	2,8
3,0835	55,0	2,8
3,084	51,4	1,3
3,0845	47,3	-1,0
3,085	42,4	-3,5
3,0855	36,8	-5,4
3,086	30,7	-6,2
3,0865	24,2	-5,6
3,087	17,8	-3,8
3,0875	12,2	-1,0
3,088	8,1	2,4
3,0885	6,3	5,3
3,089	7,2	7,2
3,0895	10,4	7,3
3,09	15,3	5,6
3,0905	20,7	2,8
3,091	25,3	0,2
3,0915	29,2	-0,5
3,092	32,9	1,1
3,0925	37,0	4,2
3,093	40,9	7,6
3,0935	43,8	10,5
3,094	46,1	12,2
3,0945	48,4	12,3
3,095	50,9	11,0
3,0955	53,0	9,0
3,096	53,8	7,4
3,0965	52,8	6,6
3,097	49,4	6,2
3,0975	43,4	5,8
3,098	34,6	5,6
3,0985	23,3	6,5
3,099	10,8	9,1
3,0995	-0,9	12,7
3,1	-10,4	16,1
3,1005	-17,1	18,7
3,101	-21,0	20,8
3,1015	-22,3	23,0
3,102	-21,9	25,2
3,1025	-21,7	27,2
3,103	-22,8	28,4
3,1035	-25,0	28,6
3,104	-27,5	27,9
3,1045	-29,5	26,9
3,105	-30,4	26,2
3,1055	-29,8	25,9
3,106	-26,8	25,9
3,1065	-20,3	25,8
3,107	-10,7	25,0
3,1075	0,3	23,0
3,108	9,5	20,3
3,1085	15,5	17,6
3,109	18,4	16,0
3,1095	19,0	15,8
3,11	17,8	16,9
3,1105	15,2	18,6
3,111	11,7	20,0
3,1115	7,5	20,7
3,112	3,0	20,9
3,1125	-1,8	20,9
3,113	-6,7	21,2
3,1135	-11,8	21,8
3,114	-17,3	22,9
3,1145	-23,7	24,3
3,115	-31,3	26,4
3,1155	-39,8	29,1
3,116	-48,3	31,7
3,1165	-55,8	33,2
3,117	-61,8	33,4
3,1175	-66,1	32,5
3,118	-68,8	31,2
3,1185	-70,2	29,7
3,119	-71,2	28,6
3,1195	-73,0	28,2
3,12	-75,7	28,8
3,1205	-78,7	30,7
3,121	-80,9	33,6
3,1215	-81,3	36,5
3,122	-80,0	38,5
3,1225	-77,4	38,8
3,123	-73,7	37,2
3,1235	-69,2	33,7
3,124	-64,7	29,3
3,1245	-61,4	25,4
3,125	-60,3	23,2
3,1255	-60,5	22,5
3,126	-61,1	22,9
3,1265	-61,9	23,6
3,127	-63,4	24,0
3,1275	-66,1	23,6
3,128	-69,3	22,4
3,1285	-72,2	20,8
3,129	-74,2	19,3
3,1295	-75,7	18,7
3,13	-77,0	19,3
3,1305	-78,6	21,1
3,131	-80,5	24,0
3,1315	-83,2	27,7
3,132	-86,3	31,8
3,1325	-88,8	35,8
3,133	-89,8	38,8
3,1335	-89,5	40,3
3,134	-88,7	40,3
3,1345	-88,2	39,3
3,135	-88,1	38,0
3,1355	-88,3	36,8
3,136	-88,8	35,6
3,1365	-90,1	33,9
3,137	-93,1	31,5
3,1375	-97,7	28,8
3,138	-102,4	26,6
3,1385	-105,3	25,1
3,139	-105,7	23,7
3,1395	-104,2	21,7
3,14	-102,2	19,2
3,1405	-100,3	17,0
3,141	-99,4	15,7
3,1415	-100,0	15,7
3,142	-102,3	16,5
3,1425	-105,4	17,6
3,143	-108,6	18,8
3,1435	-111,3	20,0
3,144	-113,5	20,7
3,1445	-115,3	20,9
3,145	-116,7	20,4
3,1455	-117,4	19,6
3,146	-117,3	18,7
3,1465	-116,5	18,3
3,147	-115,9	18,7
3,1475	-116,2	20,4
3,148	-118,0	23,4
3,1485	-121,3	27,4
3,149	-124,8	31,5
3,1495	-126,4	34,1
3,15	-125,9	34,1
3,1505	-124,3	31,5
3,151	-122,8	26,9
3,1515	-122,1	21,7
3,152	-121,9	17,4
3,1525	-122,3	15,3
3,153	-123,6	15,3
3,1535	-126,3	16,2
3,154	-130,4	17,3
3,1545	-134,9	18,0
3,155	-138,6	18,3
3,1555	-140,2	18,3
3,156	-139,1	17,9
3,1565	-135,7	16,7
3,157	-130,9	14,8
3,1575	-126,5	12,8
3,158	-124,0	11,0
3,1585	-124,0	9,9
3,159	-125,8	9,3
3,1595	-128,1	9,0
3,16	-130,0	9,3
3,1605	-131,1	9,9
3,161	-131,0	10,7
3,1615	-129,7	11,2
3,162	-127,1	10,9
3,1625	-123,7	9,9
3,163	-119,9	8,8
3,1635	-116,5	7,8
3,164	-115,0	7,1
3,1645	-116,9	6,3
3,165	-122,6	5,8
3,1655	-130,7	6,3
3,166	-139,1	7,5
3,1665	-145,7	9,3
3,167	-150,1	11,3
3,1675	-152,7	13,9
3,168	-153,7	17,2
3,1685	-153,8	20,9
3,169	-154,5	24,5
3,1695	-157,4	27,0
3,17	-163,3	27,7
3,1705	-171,2	26,4
3,171	-178,6	24,1
3,1715	-183,4	21,8
3,172	-185,1	20,3
3,1725	-184,3	19,6
3,173	-181,5	18,8
3,1735	-177,5	16,5
3,174	-173,3	12,4
3,1745	-170,2	7,7
3,175	-168,8	3,8
3,1755	-168,5	1,8
3,176	-168,4	1,7
3,1765	-167,9	2,6
3,177	-166,9	3,9
3,1775	-165,2	4,8
3,178	-163,1	5,0
3,1785	-160,9	4,5
3,179	-158,8	3,5
3,1795	-157,7	2,7
3,18	-157,9	2,3
3,1805	-160,1	2,1
3,181	-164,1	2,3
3,1815	-169,8	3,2
3,182	-176,9	5,3
3,1825	-184,1	8,2
3,183	-190,2	10,9
3,1835	-194,8	12,7
3,184	-198,6	13,6
3,1845	-202,3	13,8
3,185	-206,6	13,6
3,1855	-211,8	13,5
3,186	-218,1	14,2
3,1865	-225,2	15,9
3,187	-232,2	18,6
3,1875	-237,8	21,8
3,188	-241,2	25,0
3,1885	-242,3	27,8
3,189	-241,5	29,6
3,1895	-239,6	29,8
3,19	-236,9	28,1
3,1905	-233,8	25,2
3,191	-231,2	22,5
3,1915	-229,7	21,2
3,192	-229,6	21,4
3,1925	-230,1	22,4
3,193	-230,6	23,4
3,1935	-230,6	24,2
3,194	-229,9	24,6
3,1945	-228,6	24,4
3,195	-226,3	23,3
3,1955	-223,3	20,7
3,196	-219,8	16,8
3,1965	-216,7	12,5
3,197	-215,0	9,0
3,1975	-215,5	7,2
3,198	-218,8	7,3
3,1985	-224,6	9,3
3,199	-231,9	12,6
3,1995	-239,2	15,8
3,2	-245,5	17,9
3,2005	-250,7	18,9
3,201	-255,2	19,2
3,2015	-259,3	18,9
3,202	-263,4	18,4
3,2025	-268,1	18,0
3,203	-273,4	18,2
3,2035	-279,0	19,1
3,204	-284,2	20,5
3,2045	-288,5	21,7
3,205	-291,5	22,1
3,2055	-293,3	21,3
3,206	-293,4	19,3
3,2065	-291,0	15,5
3,207	-285,9	10,1
3,2075	-279,2	3,9
3,208	-272,4	-1,1
3,2085	-266,7	-4,2
3,209	-262,4	-5,3
3,2095	-259,2	-5,1
3,21	-256,3	-4,2
3,2105	-253,2	-3,3
3,211	-249,3	-2,9
3,2115	-245,0	-3,4
3,212	-240,6	-4,7
3,2125	-236,9	-6,6
3,213	-234,5	-8,6
3,2135	-234,2	-10,1
3,214	-236,4	-10,7
3,2145	-241,8	-10,2
3,215	-250,3	-8,7
3,2155	-260,5	-6,5
3,216	-270,3	-4,5
3,2165	-277,7	-3,6
3,217	-281,9	-4,3
3,2175	-283,3	-6,2
3,218	-283,2	-9,1
3,2185	-282,8	-12,9
3,219	-283,3	-17,2
3,2195	-284,7	-21,0
3,22	-286,1	-23,4
3,2205	-286,3	-23,5
3,221	-284,9	-22,0
3,2215	-282,3	-19,8
3,222	-278,7	-17,9
3,2225	-274,3	-17,0
3,223	-268,8	-17,4
3,2235	-262,0	-19,0
3,224	-254,5	-21,4
3,2245	-248,1	-23,3
3,225	-245,2	-24,2
3,2255	-247,3	-23,9
3,226	-253,1	-23,0
3,2265	-259,6	-21,6
3,227	-263,4	-19,8
3,2275	-263,3	-18,0
3,228	-260,2	-16,2
3,2285	-255,4	-14,8
3,229	-250,1	-14,1
3,2295	-244,5	-13,9
3,23	-238,7	-14,2
3,2305	-233,0	-14,6
3,231	-227,8	-14,9
3,2315	-224,2	-15,0
3,232	-223,0	-15,0
3,2325	-223,7	-15,8
3,233	-224,8	-18,0
3,2335	-224,9	-21,3
3,234	-223,5	-24,4
3,2345	-221,2	-26,3
3,235	-219,4	-26,4
3,2355	-219,8	-24,7
3,236	-223,2	-21,5
3,2365	-228,9	-17,7
3,237	-235,5	-14,6
3,2375	-242,3	-13,6
3,238	-248,8	-14,6
3,2385	-254,9	-17,2
3,239	-259,6	-20,8
3,2395	-262,2	-25,1
3,24	-261,9	-29,5
3,2405	-259,4	-33,8
3,241	-256,0	-37,2
3,2415	-253,2	-39,2
3,242	-251,2	-39,5
3,2425	-249,4	-38,6
3,243	-247,5	-37,4
3,2435	-245,3	-36,9
3,244	-242,8	-37,7
3,2445	-239,5	-39,4
3,245	-235,3	-41,6
3,2455	-230,4	-43,8
3,246	-225,6	-45,6
3,2465	-221,9	-46,5
3,247	-220,3	-46,3
3,2475	-221,1	-44,9
3,248	-224,1	-42,5
3,2485	-228,8	-39,3
3,249	-234,4	-35,8
3,2495	-239,2	-33,1
3,25	-242,0	-32,0
3,2505	-242,9	-32,6
3,251	-242,6	-34,1
3,2515	-241,8	-36,1
3,252	-241,1	-38,0
3,2525	-241,3	-39,5
3,253	-242,9	-40,2
3,2535	-245,8	-40,2
3,254	-249,2	-39,6
3,2545	-252,3	-39,1
3,255	-253,9	-39,0
3,2555	-253,6	-39,5
3,256	-251,1	-40,5
3,2565	-246,4	-42,2
3,257	-239,9	-44,5
3,2575	-232,7	-47,1
3,258	-225,4	-48,9
3,2585	-218,4	-49,6
3,259	-211,8	-49,4
3,2595	-205,8	-48,8
3,26	-200,7	-48,2
3,2605	-195,8	-47,5
3,261	-190,5	-47,2
3,2615	-185,2	-47,7
3,262	-180,7	-49,6
3,2625	-177,6	-53,1
3,263	-175,9	-57,3
3,2635	-175,4	-61,3
3,264	-175,8	-64,2
3,2645	-176,9	-65,3
3,265	-178,8	-64,8
3,2655	-181,6	-63,4
3,266	-184,8	-62,2
3,2665	-187,9	-62,8
3,267	-190,5	-65,1
3,2675	-192,8	-68,2
3,268	-194,9	-70,5
3,2685	-196,5	-71,0
3,269	-198,0	-69,8
3,2695	-199,3	-67,3
3,27	-200,5	-64,5
3,2705	-201,4	-61,6
3,271	-201,8	-59,0
3,2715	-201,2	-57,0
3,272	-198,9	-55,8
3,2725	-194,6	-56,0
3,273	-187,7	-57,6
3,2735	-178,4	-60,3
3,274	-167,6	-63,0
3,2745	-156,7	-64,7
3,275	-147,1	-64,8
3,2755	-139,0	-63,9
3,276	-132,2	-63,0
3,2765	-126,1	-62,5
3,277	-120,4	-62,6
3,2775	-115,2	-63,8
3,278	-110,1	-66,4
3,2785	-105,1	-70,8
3,279	-100,1	-76,2
3,2795	-95,3	-81,3
3,28	-91,4	-84,4
3,2805	-88,9	-85,0
3,281	-88,6	-83,5
3,2815	-90,8	-80,7
3,282	-95,3	-77,9
3,2825	-100,3	-76,0
3,283	-104,3	-76,0
3,2835	-106,6	-77,8
3,284	-107,8	-80,6
3,2845	-109,0	-83,4
3,285	-110,7	-85,4
3,2855	-113,7	-85,7
3,286	-117,3	-83,9
3,2865	-120,6	-80,4
3,287	-121,9	-76,0
3,2875	-120,8	-71,7
3,288	-117,5	-68,2
3,2885	-112,8	-65,9
3,289	-107,4	-64,9
3,2895	-101,1	-65,1
3,29	-93,6	-66,3
3,2905	-85,4	-68,3
3,291	-78,1	-70,3
3,2915	-73,2	-72,0
3,292	-70,4	-73,4
3,2925	-68,6	-74,7
3,293	-66,3	-75,7
3,2935	-62,9	-76,5
3,294	-57,9	-76,9
3,2945	-51,2	-77,0
3,295	-43,1	-76,9
3,2955	-35,3	-77,1
3,296	-29,7	-77,9
3,2965	-27,0	-79,1
3,297	-26,3	-80,1
3,2975	-26,1	-80,6
3,298	-26,5	-80,0
3,2985	-28,7	-78,7
3,299	-33,0	-77,1
3,2995	-38,4	-76,8
3,3	-43,1	-78,6
3,3005	-45,9	-81,8
3,301	-46,7	-84,9
3,3015	-46,2	-86,9
3,302	-45,8	-87,7
3,3025	-47,0	-87,2
3,303	-50,2	-85,2
3,3035	-55,0	-81,8
3,304	-60,4	-77,7
3,3045	-65,1	-73,3
3,305	-68,3	-69,6
3,3055	-70,4	-66,9
3,306	-71,9	-65,7
3,3065	-72,7	-66,1
3,307	-71,9	-67,5
3,3075	-69,1	-69,1
3,308	-65,2	-69,8
3,3085	-60,8	-69,6
3,309	-56,3	-69,2
3,3095	-51,3	-69,5
3,31	-45,7	-70,4
3,3105	-38,6	-71,3
3,311	-29,7	-71,6
3,3115	-19,2	-71,4
3,312	-7,8	-70,8
3,3125	3,5	-70,3
3,313	13,4	-70,3
3,3135	20,6	-71,2
3,314	24,4	-73,2
3,3145	25,1	-75,8
3,315	23,2	-78,0
3,3155	19,6	-79,0
3,316	15,6	-79,2
3,3165	12,3	-79,8
3,317	10,6	-81,1
3,3175	10,0	-82,3
3,318	9,5	-82,9
3,3185	8,3	-82,7
3,319	5,7	-82,3
3,3195	1,7	-81,8
3,32	-2,9	-81,3
3,3205	-7,0	-80,4
3,321	-9,9	-79,2
3,3215	-10,8	-77,8
3,322	-9,3	-76,4
3,3225	-4,6	-75,5
3,323	3,5	-75,3
3,3235	13,9	-75,9
3,324	24,5	-77,3
3,3245	32,6	-78,8
3,325	36,9	-80,0
3,3255	38,3	-80,8
3,326	38,2	-81,3
3,3265	37,8	-81,4
3,327	38,0	-81,3
3,3275	39,3	-81,3
3,328	42,0	-81,6
3,3285	45,7	-82,6
3,329	49,8	-84,2
3,3295	53,6	-85,8
3,33	56,6	-87,0
3,3305	58,2	-87,4
3,331	58,1	-86,7
3,3315	55,8	-84,8
3,332	51,8	-81,9
3,3325	47,5	-78,3
3,333	44,4	-75,3
3,3335	42,8	-73,3
3,334	42,0	-72,6
3,3345	41,3	-72,4
3,335	40,4	-72,3
3,3355	39,3	-72,0
3,336	37,8	-71,3
3,3365	35,8	-69,9
3,337	33,4	-67,8
3,3375	30,7	-65,3
3,338	28,0	-62,8
3,3385	26,1	-60,8
3,339	25,6	-60,0
3,3395	27,1	-60,0
3,34	30,9	-60,8
3,3405	36,8	-62,0
3,341	43,1	-63,2
3,3415	48,4	-63,6
3,342	52,4	-63,0
3,3425	56,2	-61,6
3,343	60,5	-60,1
3,3435	64,8	-58,9
3,344	68,4	-58,6
3,3445	70,9	-59,7
3,345	72,4	-62,2
3,3455	73,7	-65,9
3,346	75,0	-70,2
3,3465	75,9	-74,3
3,347	76,2	-77,1
3,3475	75,4	-77,7
3,348	73,4	-75,5
3,3485	69,8	-70,8
3,349	65,2	-65,1
3,3495	60,8	-60,3
3,35	57,6	-57,4
3,3505	55,7	-56,8
3,351	54,4	-57,6
3,3515	53,5	-59,1
3,352	52,8	-60,4
3,3525	51,7	-60,8
3,353	50,0	-59,8
3,3535	47,4	-57,7
3,354	44,1	-54,8
3,3545	40,8	-52,0
3,355	38,5	-50,0
3,3555	38,1	-49,6
3,356	40,3	-50,9
3,3565	45,4	-52,9
3,357	53,3	-54,9
3,3575	62,0	-56,3
3,358	69,1	-56,7
3,3585	73,2	-56,0
3,359	74,6	-54,7
3,3595	74,4	-53,1
3,36	74,4	-51,6
3,3605	75,4	-50,6
3,361	78,1	-50,1
3,3615	81,8	-50,1
3,362	86,1	-50,6
3,3625	90,0	-51,3
3,363	92,9	-52,6
3,3635	94,1	-54,8
3,364	92,7	-58,2
3,3645	88,0	-61,8
3,365	80,8	-64,2
3,3655	73,2	-64,3
3,366	68,1	-62,5
3,3665	66,6	-59,8
3,367	68,1	-56,9
3,3675	70,9	-53,8
3,368	74,0	-51,0
3,3685	77,6	-49,2
3,369	81,6	-48,7
3,3695	85,3	-49,3
3,37	88,0	-50,4
3,3705	88,9	-51,3
3,371	88,3	-51,2
3,3715	87,4	-50,3
3,372	87,4	-49,2
3,3725	88,8	-48,4
3,373	91,2	-48,8
3,3735	93,7	-50,7
3,374	94,9	-53,9
3,3745	93,5	-57,6
3,375	89,1	-60,8
3,3755	83,1	-62,6
3,376	77,3	-62,7
3,3765	72,9	-61,6
3,377	70,2	-59,8
3,3775	69,7	-58,2
3,378	71,6	-57,8
3,3785	75,7	-58,6
3,379	81,5	-60,3
3,3795	88,4	-62,2
3,38	96,0	-63,2
3,3805	103,5	-62,6
3,381	110,3	-60,1
3,3815	115,4	-55,8
3,382	118,5	-50,4
3,3825	119,7	-44,8
3,383	119,5	-40,3
3,3835	118,4	-37,9
3,384	116,3	-37,8
3,3845	113,1	-39,4
3,385	108,8	-41,8
3,3855	103,7	-44,1
3,386	97,7	-44,9
3,3865	91,2	-43,7
3,387	84,5	-40,4
3,3875	78,6	-36,1
3,388	74,6	-31,9
3,3885	73,2	-28,8
3,389	74,0	-27,6
3,3895	76,1	-28,7
3,39	78,7	-32,5
3,3905	81,5	-38,0
3,391	84,1	-43,2
3,3915	86,3	-46,1
3,392	88,0	-46,0
3,3925	89,7	-43,7
3,393	91,8	-40,3
3,3935	94,9	-36,8
3,394	99,8	-34,0
3,3945	106,6	-32,6
3,395	113,9	-33,0
3,3955	119,8	-35,3
3,396	123,3	-39,4
3,3965	124,7	-44,2
3,397	124,2	-48,8
3,3975	122,4	-52,0
3,398	119,3	-53,0
3,3985	115,3	-51,6
3,399	111,0	-48,5
3,3995	107,0	-45,3
3,4	103,8	-43,2
3,4005	100,9	-42,2
3,401	97,4	-41,7
3,4015	93,5	-41,2
3,402	89,5	-40,4
3,4025	85,5	-39,0
3,403	81,2	-36,6
3,4035	76,8	-33,4
3,404	73,0	-29,8
3,4045	70,5	-26,6
3,405	69,4	-25,1
3,4055	69,5	-25,9
3,406	71,1	-29,2
3,4065	74,8	-34,3
3,407	80,8	-39,9
3,4075	88,1	-44,9
3,408	95,1	-47,9
3,4085	101,4	-48,7
3,409	107,9	-47,5
3,4095	116,2	-45,1
3,41	126,3	-42,2
3,4105	136,3	-39,4
3,411	144,2	-37,9
3,4115	149,1	-38,3
3,412	151,8	-40,7
3,4125	153,6	-44,4
3,413	155,2	-48,5
3,4135	157,0	-51,6
3,414	158,2	-52,9
