Interval=	0,0005 s
ExcelDateTime=	4,5909509274439028e+004	9/09/2025 12:13:21,311532
TimeFormat=	StartOfBlock
DateFormat=	
ChannelTitle=	Biceps	Triceps
Range=	1000,0 µV	1000,0 µV
0	0,1	0,0
0,0005	1,8	0,7
0,001	6,3	2,7
0,0015	13,5	6,3
0,002	20,8	10,5
0,0025	25,3	14,2
0,003	26,6	17,2
0,0035	25,7	19,9
0,004	23,8	22,4
0,0045	21,5	24,7
0,005	19,6	26,5
0,0055	18,3	27,8
0,006	18,3	28,6
0,0065	19,4	28,8
0,007	20,8	28,4
0,0075	21,7	27,2
0,008	21,3	25,1
0,0085	20,2	22,2
0,009	18,9	18,5
0,0095	17,8	14,3
0,01	17,3	10,4
0,0105	17,4	7,6
0,011	18,2	5,9
0,0115	19,2	4,4
0,012	19,5	2,7
0,0125	18,7	0,4
0,013	16,5	-2,2
0,0135	13,0	-5,0
0,014	8,8	-7,8
0,0145	4,5	-10,0
0,015	0,3	-11,1
0,0155	-3,5	-10,8
0,016	-6,6	-8,9
0,0165	-8,5	-6,0
0,017	-9,3	-2,4
0,0175	-9,0	1,5
0,018	-7,4	5,7
0,0185	-4,9	9,4
0,019	-2,6	12,0
0,0195	-0,8	13,8
0,02	0,8	15,5
0,0205	2,7	17,4
0,021	5,4	19,4
0,0215	9,1	21,3
0,022	13,8	23,4
0,0225	19,0	25,4
0,023	24,0	27,3
0,0235	28,6	29,0
0,024	32,9	30,3
0,0245	36,9	31,3
0,025	40,1	31,3
0,0255	42,0	30,2
0,026	42,0	28,0
0,0265	40,4	25,4
0,027	37,9	23,5
0,0275	35,2	22,6
0,028	32,8	22,1
0,0285	30,7	21,2
0,029	28,9	19,8
0,0295	26,9	17,7
0,03	23,8	14,1
0,0305	19,3	8,6
0,031	13,4	1,6
0,0315	6,3	-6,0
0,032	-1,5	-13,0
0,0325	-8,8	-18,4
0,033	-14,0	-21,1
0,0335	-16,4	-20,8
0,034	-15,9	-17,5
0,0345	-13,5	-11,9
0,035	-10,2	-5,5
0,0355	-7,0	0,4
0,036	-3,9	5,1
0,0365	-0,4	9,0
0,037	3,8	12,8
0,0375	7,8	16,4
0,038	10,4	19,8
0,0385	10,6	22,7
0,039	8,7	25,2
0,0395	5,8	27,3
0,04	3,4	28,7
0,0405	2,0	28,9
0,041	1,5	27,8
0,0415	1,7	25,6
0,042	2,4	22,3
0,0425	3,4	18,1
0,043	3,8	13,2
0,0435	3,4	8,7
0,044	2,6	5,7
0,0445	2,2	4,6
0,045	2,5	5,1
0,0455	3,9	6,7
0,046	6,8	8,5
0,0465	10,8	9,9
0,047	14,8	10,1
0,0475	17,9	9,2
0,048	20,5	7,4
0,0485	23,0	5,3
0,049	25,0	3,6
0,0495	25,3	2,5
0,05	23,3	1,7
0,0505	20,3	1,1
0,051	18,1	0,7
0,0515	17,9	0,1
0,052	20,1	-1,1
0,0525	23,9	-2,4
0,053	27,7	-2,8
0,0535	29,9	-1,9
0,054	29,9	0,0
0,0545	28,3	2,4
0,055	26,3	5,4
0,0555	24,8	9,2
0,056	24,0	13,7
0,0565	23,9	18,1
0,057	23,9	21,6
0,0575	23,7	23,6
0,058	23,0	24,0
0,0585	22,0	22,8
0,059	20,7	20,0
0,0595	19,3	16,0
0,06	18,2	12,1
0,0605	18,1	9,4
0,061	18,8	8,1
0,0615	19,2	7,0
0,062	18,8	5,4
0,0625	17,6	3,2
0,063	15,8	0,4
0,0635	13,6	-3,3
0,064	11,0	-7,9
0,0645	7,7	-13,1
0,065	4,2	-17,8
0,0655	1,1	-20,2
0,066	-0,4	-19,4
0,0665	-0,0	-16,2
0,067	2,0	-11,5
0,0675	4,9	-6,2
0,068	7,8	-1,0
0,0685	9,8	3,4
0,069	10,7	6,3
0,0695	11,0	8,0
0,07	11,4	9,4
0,0705	12,0	11,2
0,071	12,4	13,5
0,0715	12,5	16,2
0,072	12,2	18,8
0,0725	11,5	20,5
0,073	10,7	20,9
0,0735	10,2	20,2
0,074	10,2	19,1
0,0745	10,7	18,0
0,075	11,1	16,8
0,0755	11,0	15,1
0,076	10,4	12,3
0,0765	9,5	8,9
0,077	8,8	5,8
0,0775	8,7	3,8
0,078	9,3	2,7
0,0785	10,3	2,0
0,079	11,3	1,4
0,0795	12,2	0,6
0,08	12,5	-1,0
0,0805	12,0	-3,5
0,081	10,8	-6,4
0,0815	9,3	-8,8
0,082	8,1	-9,8
0,0825	7,5	-9,3
0,083	7,4	-7,9
0,0835	7,3	-6,1
0,084	7,2	-3,8
0,0845	7,4	-0,8
0,085	7,9	2,8
0,0855	8,0	6,5
0,086	7,3	9,8
0,0865	6,1	12,6
0,087	5,3	15,0
0,0875	5,5	17,0
0,088	6,6	19,2
0,0885	8,5	21,9
0,089	11,2	25,2
0,0895	13,9	28,6
0,09	16,3	31,5
0,0905	18,3	33,7
0,091	19,7	34,9
0,0915	20,5	34,6
0,092	20,3	32,0
0,0925	18,7	26,5
0,093	15,5	18,7
0,0935	11,8	10,3
0,094	9,1	3,0
0,0945	8,3	-2,4
0,095	9,7	-6,1
0,0955	12,4	-8,6
0,096	15,1	-10,1
0,0965	16,4	-11,5
0,097	15,8	-13,3
0,0975	13,4	-15,7
0,098	10,2	-18,0
0,0985	7,2	-19,5
0,099	5,0	-19,6
0,0995	4,0	-18,0
0,1	4,4	-15,3
0,1005	6,5	-11,8
0,101	10,3	-7,6
0,1015	15,2	-3,2
0,102	19,7	0,9
0,1025	22,7	4,2
0,103	23,8	6,9
0,1035	23,7	9,4
0,104	23,3	12,2
0,1045	23,4	15,4
0,105	24,7	19,3
0,1055	27,1	24,1
0,106	29,8	29,4
0,1065	32,6	33,9
0,107	34,7	36,1
0,1075	35,5	34,9
0,108	34,1	30,3
0,1085	30,6	23,3
0,109	25,7	15,7
0,1095	20,6	8,7
0,11	16,4	3,3
0,1105	14,1	0,2
0,111	13,8	-1,2
0,1115	14,8	-1,4
0,112	16,4	-1,2
0,1125	18,3	-0,5
0,113	20,7	0,9
0,1135	23,3	2,1
0,114	25,7	2,8
0,1145	27,3	3,1
0,115	27,7	3,3
0,1155	27,3	3,8
0,116	26,5	4,5
0,1165	25,3	4,9
0,117	23,5	4,9
0,1175	21,4	5,5
0,118	19,7	7,4
0,1185	18,3	9,5
0,119	16,3	9,6
0,1195	11,8	6,1
0,12	4,2	-0,3
0,1205	-5,5	-6,6
0,121	-15,0	-9,8
0,1215	-21,8	-8,0
0,122	-25,0	-1,8
0,1225	-24,7	6,6
0,123	-21,9	14,9
0,1235	-18,3	21,4
0,124	-15,3	25,1
0,1245	-13,8	25,7
0,125	-13,6	23,8
0,1255	-13,9	20,4
0,126	-13,8	16,2
0,1265	-12,9	11,9
0,127	-10,9	8,7
0,1275	-7,9	6,5
0,128	-4,4	4,6
0,1285	-0,2	2,4
0,129	5,5	0,1
0,1295	12,3	-1,6
0,13	18,7	-2,6
0,1305	23,0	-3,5
0,131	24,8	-4,4
0,1315	24,5	-5,3
0,132	22,6	-5,5
0,1325	19,7	-4,9
0,133	16,2	-3,8
0,1335	12,1	-3,4
0,134	7,4	-4,6
0,1345	2,8	-7,0
0,135	-1,3	-9,7
0,1355	-4,8	-11,6
0,136	-7,8	-12,3
0,1365	-10,0	-11,3
0,137	-11,1	-8,5
0,1375	-11,0	-4,6
0,138	-10,0	0,0
0,1385	-8,4	4,7
0,139	-6,1	9,2
0,1395	-2,1	13,3
0,14	3,5	16,5
0,1405	9,1	18,2
0,141	12,4	17,8
0,1415	12,2	15,7
0,142	9,3	12,3
0,1425	5,4	8,3
0,143	2,2	4,4
0,1435	1,1	1,4
0,144	3,0	-0,3
0,1445	7,5	-1,3
0,145	13,0	-2,3
0,1455	17,9	-3,9
0,146	21,2	-5,9
0,1465	22,4	-8,3
0,147	21,8	-11,1
0,1475	19,7	-14,2
0,148	16,5	-17,2
0,1485	13,1	-19,4
0,149	10,0	-20,0
0,1495	7,8	-18,6
0,15	6,6	-15,4
0,1505	7,1	-11,0
0,151	8,8	-5,9
0,1515	10,8	-1,4
0,152	11,6	1,7
0,1525	10,7	3,1
0,153	8,8	3,4
0,1535	6,9	3,8
0,154	5,7	4,8
0,1545	5,4	7,1
0,155	6,5	10,6
0,1555	9,1	15,2
0,156	12,9	19,9
0,1565	16,9	24,0
0,157	20,6	26,5
0,1575	23,3	27,0
0,158	24,6	25,1
0,1585	24,6	21,2
0,159	23,6	16,3
0,1595	22,2	11,6
0,16	21,0	8,1
0,1605	20,4	5,8
0,161	19,8	3,9
0,1615	18,8	1,4
0,162	17,3	-1,9
0,1625	15,6	-5,6
0,163	14,1	-9,3
0,1635	12,2	-13,2
0,164	9,8	-17,3
0,1645	7,0	-20,8
0,165	4,6	-22,9
0,1655	2,9	-23,2
0,166	2,0	-21,7
0,1665	2,2	-18,9
0,167	3,5	-15,3
0,1675	6,0	-11,0
0,168	8,8	-6,2
0,1685	11,1	-1,9
0,169	12,1	1,1
0,1695	12,2	2,7
0,17	11,9	3,8
0,1705	11,8	4,7
0,171	11,8	5,7
0,1715	12,2	7,2
0,172	13,2	9,6
0,1725	14,9	12,7
0,173	17,1	15,9
0,1735	19,1	18,3
0,174	20,1	19,0
0,1745	19,4	18,1
0,175	17,3	15,8
0,1755	14,5	12,4
0,176	11,5	8,5
0,1765	8,8	4,5
0,177	6,9	1,6
0,1775	5,9	0,1
0,178	5,8	-0,6
0,1785	6,1	-1,3
0,179	6,8	-2,4
0,1795	7,8	-3,9
0,18	8,8	-6,1
0,1805	9,5	-9,1
0,181	9,5	-12,5
0,1815	9,2	-15,5
0,182	9,1	-17,4
0,1825	10,1	-17,7
0,183	12,5	-16,3
0,1835	16,2	-13,3
0,184	20,6	-9,2
0,1845	24,8	-4,2
0,185	28,2	0,5
0,1855	30,1	4,0
0,186	30,6	6,2
0,1865	30,0	7,9
0,187	29,0	10,0
0,1875	28,0	12,8
0,188	27,3	16,4
0,1885	26,9	20,7
0,189	26,7	25,1
0,1895	26,3	28,6
0,19	25,7	30,5
0,1905	24,7	30,7
0,191	23,5	29,5
0,1915	22,5	27,6
0,192	21,9	25,2
0,1925	21,7	21,6
0,193	21,4	16,2
0,1935	21,0	9,3
0,194	20,7	2,0
0,1945	21,1	-5,0
0,195	22,0	-10,9
0,1955	22,8	-15,4
0,196	23,0	-18,4
0,1965	22,1	-20,5
0,197	20,0	-22,5
0,1975	16,6	-24,5
0,198	12,3	-25,9
0,1985	8,2	-25,8
0,199	5,3	-24,2
0,1995	3,9	-21,2
0,2	4,1	-17,4
0,2005	5,1	-13,0
0,201	6,5	-8,1
0,2015	7,9	-3,2
0,202	8,7	0,8
0,2025	8,9	3,5
0,203	9,5	5,5
0,2035	11,3	7,4
0,204	14,6	9,7
0,2045	18,4	12,2
0,205	21,4	14,8
0,2055	23,0	17,2
0,206	23,6	19,3
0,2065	23,7	20,8
0,207	23,5	21,1
0,2075	22,5	20,0
0,208	20,1	17,6
0,2085	16,1	14,3
0,209	10,9	10,6
0,2095	5,7	6,7
0,21	1,3	3,1
0,2105	-1,3	0,1
0,211	-2,2	-1,9
0,2115	-1,8	-3,3
0,212	-0,7	-4,4
0,2125	0,9	-5,1
0,213	2,8	-5,6
0,2135	4,4	-6,6
0,214	5,8	-7,8
0,2145	6,9	-9,0
0,215	7,7	-9,3
0,2155	7,9	-8,0
0,216	7,5	-5,0
0,2165	7,6	-0,9
0,217	9,5	3,6
0,2175	13,6	7,9
0,218	18,9	11,6
0,2185	23,8	13,9
0,219	27,0	14,7
0,2195	28,1	14,8
0,22	27,7	15,5
0,2205	26,6	16,7
0,221	25,0	17,3
0,2215	22,8	16,7
0,222	20,5	15,1
0,2225	18,7	13,4
0,223	17,8	12,1
0,2235	18,1	11,2
0,224	20,0	10,6
0,2245	23,3	10,3
0,225	26,4	9,9
0,2255	27,8	8,5
0,226	27,1	5,4
0,2265	25,0	1,3
0,227	23,1	-2,4
0,2275	22,2	-4,4
0,228	22,2	-5,0
0,2285	22,3	-5,3
0,229	21,9	-5,9
0,2295	21,1	-6,9
0,23	20,2	-8,3
0,2305	19,4	-10,4
0,231	18,3	-13,2
0,2315	16,6	-16,1
0,232	14,5	-18,6
0,2325	12,5	-20,0
0,233	10,9	-20,0
0,2335	10,0	-18,7
0,234	10,0	-16,3
0,2345	11,0	-12,4
0,235	12,6	-7,9
0,2355	14,2	-3,6
0,236	16,3	0,2
0,2365	19,3	3,9
0,237	23,2	7,5
0,2375	26,1	10,6
0,238	26,7	13,0
0,2385	25,3	15,0
0,239	23,1	16,9
0,2395	21,2	18,9
0,24	19,7	20,6
0,2405	17,9	21,6
0,241	15,2	21,7
0,2415	11,3	20,6
0,242	6,6	17,9
0,2425	1,2	13,1
0,243	-4,4	6,9
0,2435	-8,8	1,0
0,244	-11,1	-3,0
0,2445	-10,8	-4,6
0,245	-8,8	-4,8
0,2455	-6,0	-4,6
0,246	-3,1	-4,5
0,2465	-0,5	-5,0
0,247	1,4	-6,2
0,2475	2,4	-8,1
0,248	3,2	-10,3
0,2485	4,7	-12,4
0,249	7,4	-14,0
0,2495	10,7	-15,0
0,25	13,8	-15,1
0,2505	16,1	-14,0
0,251	18,1	-11,2
0,2515	19,9	-7,2
0,252	21,1	-3,3
0,2525	21,0	-0,5
0,253	19,6	1,6
0,2535	17,3	3,6
0,254	14,8	5,5
0,2545	12,8	7,3
0,255	12,0	8,9
0,2555	13,0	11,0
0,256	15,8	13,6
0,2565	19,7	16,3
0,257	23,6	18,3
0,2575	26,8	18,8
0,258	28,6	17,9
0,2585	28,9	15,9
0,259	27,7	12,9
0,2595	25,6	9,0
0,26	23,5	5,3
0,2605	22,2	3,0
0,261	21,9	2,7
0,2615	22,0	3,8
0,262	21,8	5,3
0,2625	21,1	6,4
0,263	19,9	6,8
0,2635	18,3	5,8
0,264	16,1	3,0
0,2645	13,3	-0,9
0,265	10,4	-4,5
0,2655	8,1	-6,5
0,266	6,8	-6,7
0,2665	6,1	-6,4
0,267	5,7	-6,7
0,2675	5,8	-7,0
0,268	7,3	-5,8
0,2685	9,7	-2,7
0,269	11,8	1,2
0,2695	12,6	5,2
0,27	12,2	9,0
0,2705	11,2	12,8
0,271	10,2	15,8
0,2715	9,3	17,7
0,272	8,7	18,8
0,2725	8,5	19,2
0,273	8,5	18,8
0,2735	8,2	17,1
0,274	7,6	14,3
0,2745	6,9	11,0
0,275	6,3	8,0
0,2755	6,3	5,5
0,276	6,8	3,0
0,2765	7,7	0,4
0,277	9,2	-2,0
0,2775	11,6	-4,1
0,278	15,0	-6,1
0,2785	19,0	-7,8
0,279	23,1	-8,9
0,2795	26,3	-9,3
0,28	27,0	-9,6
0,2805	24,2	-10,3
0,281	18,3	-11,6
0,2815	10,9	-13,1
0,282	3,8	-14,3
0,2825	-1,9	-14,6
0,283	-5,6	-13,4
0,2835	-7,0	-10,9
0,284	-6,4	-7,4
0,2845	-4,3	-3,1
0,285	-1,4	1,5
0,2855	1,3	5,7
0,286	3,2	8,8
0,2865	4,5	10,9
0,287	5,7	12,4
0,2875	6,9	13,4
0,288	8,3	14,3
0,2885	10,2	15,4
0,289	13,0	16,6
0,2895	16,6	17,5
0,29	19,6	17,6
0,2905	20,8	16,7
0,291	19,8	14,8
0,2915	17,3	12,7
0,292	14,4	10,8
0,2925	11,8	9,3
0,293	10,0	8,2
0,2935	9,1	7,6
0,294	8,9	7,0
0,2945	8,5	5,1
0,295	6,3	1,7
0,2955	2,2	-2,3
0,296	-2,6	-5,1
0,2965	-6,2	-6,2
0,297	-7,9	-6,4
0,2975	-8,3	-6,5
0,298	-8,3	-7,0
0,2985	-7,9	-7,8
0,299	-6,2	-8,8
0,2995	-2,5	-9,5
0,3	2,7	-9,2
0,3005	8,8	-7,1
0,301	15,4	-3,2
0,3015	22,6	1,2
0,302	28,5	4,1
0,3025	30,7	4,2
0,303	28,6	2,2
0,3035	24,5	-0,6
0,304	21,4	-2,4
0,3045	20,4	-2,6
0,305	21,3	-1,0
0,3055	23,1	2,0
0,306	25,4	5,6
0,3065	27,4	8,8
0,307	28,4	10,8
0,3075	28,3	11,3
0,308	27,4	10,3
0,3085	26,2	8,6
0,309	24,4	6,4
0,3095	22,1	3,5
0,31	19,8	0,3
0,3105	18,4	-2,3
0,311	18,5	-3,7
0,3115	19,6	-4,3
0,312	20,8	-5,1
0,3125	21,4	-6,3
0,313	21,0	-8,2
0,3135	19,5	-10,6
0,314	17,0	-13,6
0,3145	13,8	-16,7
0,315	10,4	-19,4
0,3155	7,3	-21,0
0,316	5,3	-20,9
0,3165	4,4	-19,4
0,317	4,8	-16,6
0,3175	6,1	-12,8
0,318	7,8	-8,1
0,3185	9,2	-3,1
0,319	9,9	1,2
0,3195	9,8	4,5
0,32	9,6	7,2
0,3205	9,8	9,4
0,321	10,7	11,2
0,3215	12,0	12,9
0,322	13,7	15,0
0,3225	15,8	17,5
0,323	18,3	19,9
0,3235	20,7	21,4
0,324	22,7	21,6
0,3245	24,0	20,6
0,325	24,3	18,7
0,3255	23,5	15,9
0,326	21,5	12,2
0,3265	19,3	8,1
0,327	17,7	4,4
0,3275	17,1	1,6
0,328	17,3	-0,7
0,3285	17,8	-2,9
0,329	18,3	-5,0
0,3295	19,1	-6,9
0,33	19,5	-8,5
0,3305	19,0	-10,5
0,331	17,2	-12,9
0,3315	14,6	-15,3
0,332	11,8	-17,0
0,3325	9,9	-17,3
0,333	9,1	-16,0
0,3335	9,2	-13,6
0,334	9,8	-10,3
0,3345	10,7	-6,4
0,335	11,5	-2,4
0,3355	12,1	1,0
0,336	12,4	3,8
0,3365	12,6	6,7
0,337	13,0	10,0
0,3375	13,7	13,6
0,338	14,3	16,8
0,3385	15,0	20,0
0,339	16,3	23,4
0,3395	18,3	27,0
0,34	20,4	30,4
0,3405	22,0	32,8
0,341	22,1	33,2
0,3415	20,8	31,3
0,342	18,1	27,1
0,3425	14,2	20,6
0,343	9,3	12,7
0,3435	3,9	5,6
0,344	-0,6	1,0
0,3445	-3,8	-0,8
0,345	-5,9	-1,6
0,3455	-8,0	-2,8
0,346	-10,3	-5,2
0,3465	-12,4	-8,6
0,347	-14,1	-12,6
0,3475	-15,1	-16,3
0,348	-15,1	-18,9
0,3485	-14,1	-19,7
0,349	-11,4	-18,7
0,3495	-6,8	-16,2
0,35	-0,9	-13,0
0,3505	4,6	-9,9
0,351	8,7	-6,8
0,3515	11,0	-3,5
0,352	12,2	-0,0
0,3525	13,0	3,0
0,353	13,3	5,5
0,3535	13,3	7,5
0,354	13,5	9,3
0,3545	14,1	11,2
0,355	15,2	13,1
0,3555	16,4	15,5
0,356	17,5	18,3
0,3565	18,3	20,8
0,357	18,6	22,0
0,3575	18,2	21,0
0,358	17,3	17,6
0,3585	16,3	13,2
0,359	15,8	8,9
0,3595	15,7	5,5
0,36	15,8	3,1
0,3605	16,3	1,8
0,361	16,9	1,3
0,3615	17,3	1,3
0,362	16,6	1,1
0,3625	14,6	0,6
0,363	11,3	-0,3
0,3635	7,4	-2,3
0,364	3,4	-5,5
0,3645	-0,5	-9,4
0,365	-3,6	-13,3
0,3655	-5,3	-16,0
0,366	-5,0	-16,7
0,3665	-2,8	-15,3
0,367	0,7	-12,2
0,3675	4,9	-8,0
0,368	9,6	-3,2
0,3685	14,8	1,7
0,369	20,4	6,1
0,3695	26,0	10,1
0,37	30,4	13,9
0,3705	32,7	17,6
0,371	32,4	21,0
0,3715	30,3	24,0
0,372	27,5	27,1
0,3725	24,5	30,6
0,373	21,5	33,6
0,3735	17,9	34,3
0,374	13,3	31,0
0,3745	7,8	23,5
0,375	2,5	14,0
0,3755	-1,3	5,2
0,376	-3,3	-1,5
0,3765	-3,1	-5,6
0,377	-0,7	-7,3
0,3775	4,0	-7,3
0,378	9,8	-6,6
0,3785	15,3	-6,3
0,379	19,8	-6,6
0,3795	23,4	-7,4
0,38	26,0	-8,5
0,3805	27,5	-10,2
0,381	28,2	-12,1
0,3815	28,2	-13,8
0,382	27,7	-14,4
0,3825	27,3	-13,7
0,383	27,6	-11,7
0,3835	28,6	-8,5
0,384	30,3	-4,6
0,3845	32,4	-0,8
0,385	34,0	2,0
0,3855	33,7	2,7
0,386	31,1	1,0
0,3865	27,1	-2,0
0,387	23,3	-4,6
0,3875	20,6	-5,4
0,388	19,2	-4,0
0,3885	19,1	-0,2
0,389	19,9	5,0
0,3895	21,3	10,6
0,39	22,8	15,3
0,3905	24,0	17,9
0,391	24,4	18,3
0,3915	23,2	16,9
0,392	19,9	14,5
0,3925	15,1	11,5
0,393	9,9	8,3
0,3935	5,5	5,4
0,394	2,7	3,3
0,3945	1,1	2,0
0,395	0,3	1,0
0,3955	-0,2	0,1
0,396	-0,6	-0,9
0,3965	-1,1	-2,2
0,397	-1,1	-4,1
0,3975	-0,1	-6,3
0,398	2,4	-8,4
0,3985	5,5	-9,8
0,399	7,8	-10,7
0,3995	9,3	-11,0
0,4	11,3	-10,5
0,4005	14,9	-8,5
0,401	19,9	-4,7
0,4015	24,7	0,3
0,402	28,3	4,9
0,4025	30,1	8,0
0,403	30,1	9,7
0,4035	28,6	10,5
0,404	26,3	11,2
0,4045	23,9	12,3
0,405	22,4	14,4
0,4055	22,1	17,8
0,406	23,2	21,9
0,4065	25,3	25,9
0,407	27,7	29,0
0,4075	29,4	30,4
0,408	30,0	30,0
0,4085	29,5	27,8
0,409	28,3	23,8
0,4095	26,6	18,4
0,41	24,7	12,8
0,4105	23,2	8,2
0,411	22,5	5,3
0,4115	22,6	3,8
0,412	23,2	2,7
0,4125	23,8	1,7
0,413	24,3	0,5
0,4135	24,3	-1,0
0,414	23,6	-3,0
0,4145	21,8	-5,4
0,415	19,0	-7,8
0,4155	16,4	-9,4
0,416	14,5	-9,4
0,4165	13,9	-7,9
0,417	14,5	-5,1
0,4175	16,0	-1,1
0,418	18,0	3,9
0,4185	19,8	9,1
0,419	21,0	13,5
0,4195	21,9	17,0
0,42	22,8	19,9
0,4205	23,6	22,4
0,421	24,0	24,4
0,4215	23,6	25,8
0,422	22,9	27,0
0,4225	22,5	28,1
0,423	22,6	28,7
0,4235	23,3	28,3
0,424	24,4	26,6
0,4245	25,4	23,8
0,425	26,0	20,4
0,4255	25,8	16,9
0,426	24,8	13,5
0,4265	23,3	10,4
0,427	22,0	8,7
0,4275	21,5	9,1
0,428	21,5	10,8
0,4285	21,4	12,7
0,429	20,9	13,8
0,4295	20,0	13,5
0,43	18,8	11,6
0,4305	17,5	8,4
0,431	16,1	5,1
0,4315	14,8	2,4
0,432	14,1	0,9
0,4325	14,2	0,4
0,433	15,3	0,8
0,4335	16,9	1,6
0,434	18,6	2,6
0,4345	20,3	3,7
0,435	21,4	4,9
0,4355	21,3	5,8
0,436	19,6	6,2
0,4365	16,9	6,5
0,437	14,4	7,7
0,4375	13,1	9,8
0,438	13,4	12,5
0,4385	15,3	15,5
0,439	18,6	18,7
0,4395	22,4	21,8
0,44	25,6	24,5
0,4405	27,2	26,1
0,441	26,7	26,2
0,4415	24,4	24,7
0,442	21,2	22,0
0,4425	17,9	18,4
0,443	14,9	14,2
0,4435	12,6	9,9
0,444	10,9	6,1
0,4445	9,4	2,6
0,445	7,4	-0,6
0,4455	5,1	-3,3
0,446	2,9	-5,0
0,4465	1,3	-5,8
0,447	0,5	-6,5
0,4475	0,2	-7,4
0,448	0,4	-8,9
0,4485	1,2	-10,2
0,449	2,9	-10,6
0,4495	5,4	-9,5
0,45	8,2	-7,0
0,4505	10,4	-3,3
0,451	12,0	1,4
0,4515	13,2	6,5
0,452	13,1	10,8
0,4525	11,4	14,0
0,453	8,3	16,2
0,4535	4,9	18,0
0,454	2,8	19,5
0,4545	2,3	20,4
0,455	3,3	21,3
0,4555	5,4	23,0
0,456	7,6	25,5
0,4565	9,0	27,9
0,457	8,8	29,1
0,4575	7,2	28,3
0,458	5,6	26,2
0,4585	5,4	23,8
0,459	7,2	21,9
0,4595	10,0	20,2
0,46	13,2	18,0
0,4605	17,1	15,5
0,461	22,4	12,8
0,4615	28,7	10,3
0,462	34,0	7,9
0,4625	36,7	6,1
0,463	36,5	4,9
0,4635	33,8	3,8
0,464	29,7	2,5
0,4645	25,5	0,1
0,465	22,2	-3,5
0,4655	20,4	-7,2
0,466	20,3	-9,7
0,4665	21,3	-9,8
0,467	23,2	-7,9
0,4675	25,7	-5,0
0,468	28,6	-2,1
0,4685	31,2	0,1
0,469	32,7	1,2
0,4695	33,0	1,8
0,47	32,5	2,8
0,4705	31,7	4,3
0,471	30,6	6,3
0,4715	29,8	8,8
0,472	29,9	11,8
0,4725	31,1	15,2
0,473	33,3	18,4
0,4735	35,7	20,7
0,474	38,0	21,6
0,4745	39,5	21,3
0,475	39,9	20,1
0,4755	39,3	18,1
0,476	37,6	15,7
0,4765	35,2	12,9
0,477	32,5	10,3
0,4775	30,1	8,1
0,478	28,0	6,3
0,4785	26,1	4,7
0,479	24,7	3,3
0,4795	23,6	2,2
0,48	22,6	1,1
0,4805	20,9	-1,0
0,481	17,8	-4,2
0,4815	13,5	-7,9
0,482	9,3	-11,0
0,4825	6,2	-12,3
0,483	5,1	-11,3
0,4835	5,8	-8,5
0,484	7,8	-4,3
0,4845	10,7	0,8
0,485	13,6	5,8
0,4855	15,8	9,4
0,486	16,8	11,3
0,4865	16,7	12,1
0,487	16,3	12,9
0,4875	16,1	14,2
0,488	16,3	16,2
0,4885	17,3	19,0
0,489	19,0	22,3
0,4895	21,5	25,5
0,49	24,2	27,9
0,4905	26,5	28,8
0,491	28,2	27,5
0,4915	28,7	24,3
0,492	28,1	19,5
0,4925	26,4	14,0
0,493	23,8	8,3
0,4935	21,1	3,8
0,494	19,3	0,9
0,4945	18,7	-0,3
0,495	18,4	-0,6
0,4955	17,3	-0,7
0,496	15,3	-0,7
0,4965	12,6	-1,0
0,497	9,8	-2,1
0,4975	7,2	-4,2
0,498	4,7	-7,1
0,4985	2,7	-9,8
0,499	1,3	-11,5
0,4995	0,7	-11,8
0,5	0,9	-10,6
0,5005	2,0	-7,9
0,501	4,4	-3,8
0,5015	7,7	1,1
0,502	11,1	5,8
0,5025	13,5	9,3
0,503	14,8	11,7
0,5035	15,4	13,9
0,504	16,3	16,3
0,5045	17,2	18,4
0,505	17,7	20,3
0,5055	18,2	21,8
0,506	19,3	23,1
0,5065	21,0	24,0
0,507	22,4	24,4
0,5075	22,9	24,1
0,508	22,6	23,2
0,5085	21,7	22,1
0,509	20,3	20,7
0,5095	18,5	18,9
0,51	16,7	17,0
0,5105	15,6	15,4
0,511	15,6	14,1
0,5115	16,3	12,6
0,512	17,3	10,4
0,5125	18,5	7,9
0,513	20,3	5,0
0,5135	22,6	1,8
0,514	24,5	-1,8
0,5145	25,3	-5,6
0,515	24,9	-8,7
0,5155	23,6	-10,6
0,516	22,5	-10,9
0,5165	23,1	-9,5
0,517	26,2	-6,8
0,5175	30,6	-3,4
0,518	34,0	0,0
0,5185	34,5	2,5
0,519	32,1	3,4
0,5195	28,2	3,2
0,52	24,3	3,2
0,5205	21,7	4,8
0,521	20,4	8,6
0,5215	20,5	14,6
0,522	21,5	22,1
0,5225	23,1	29,4
0,523	24,7	35,3
0,5235	25,9	38,7
0,524	26,9	39,7
0,5245	28,0	39,1
0,525	29,2	37,4
0,5255	29,8	34,2
0,526	28,8	28,9
0,5265	26,0	21,6
0,527	22,1	13,2
0,5275	18,4	5,3
0,528	15,7	-1,5
0,5285	14,3	-6,4
0,529	14,1	-9,3
0,5295	14,6	-10,3
0,53	14,7	-10,7
0,5305	13,2	-12,0
0,531	10,0	-14,4
0,5315	5,9	-17,5
0,532	2,0	-19,8
0,5325	-0,9	-20,2
0,533	-2,2	-18,1
0,5335	-1,6	-14,0
0,534	0,7	-8,4
0,5345	4,4	-1,8
0,535	8,8	4,9
0,5355	12,7	10,4
0,536	14,9	13,8
0,5365	15,7	15,2
0,537	15,8	15,3
0,5375	16,4	15,2
0,538	18,3	15,8
0,5385	22,1	17,4
0,539	27,3	19,9
0,5395	33,0	22,3
0,54	37,4	23,9
0,5405	39,3	24,4
0,541	38,3	23,8
0,5415	35,3	22,5
0,542	31,5	20,6
0,5425	27,6	18,4
0,543	23,8	15,8
0,5435	20,2	12,4
0,544	17,3	8,4
0,5445	15,2	4,0
0,545	13,9	-0,5
0,5455	13,3	-4,4
0,546	13,8	-7,2
0,5465	14,8	-8,9
0,547	15,8	-9,8
0,5475	16,5	-10,6
0,548	16,6	-11,8
0,5485	16,3	-13,1
0,549	16,1	-14,2
0,5495	16,2	-14,6
0,55	16,6	-14,0
0,5505	17,1	-12,3
0,551	17,5	-9,1
0,5515	17,5	-4,8
0,552	16,8	-0,5
0,5525	15,4	3,0
0,553	13,5	5,5
0,5535	12,1	7,7
0,554	11,3	9,8
0,5545	11,0	11,9
0,555	11,1	14,3
0,5555	11,3	17,1
0,556	11,4	20,1
0,5565	11,3	23,1
0,557	10,5	25,3
0,5575	9,1	26,5
0,558	7,1	26,5
0,5585	4,8	25,5
0,559	1,9	23,9
0,5595	-1,8	21,5
0,56	-5,9	18,8
0,5605	-9,0	16,5
0,561	-10,8	14,6
0,5615	-11,9	12,5
0,562	-13,3	9,3
0,5625	-14,9	5,4
0,563	-15,7	1,7
0,5635	-15,3	-1,4
0,564	-13,3	-4,0
0,5645	-9,8	-6,2
0,565	-4,3	-7,9
0,5655	3,4	-9,0
0,566	12,6	-9,4
0,5665	21,3	-9,1
0,567	28,5	-8,0
0,5675	34,6	-5,4
0,568	40,3	-1,3
0,5685	45,5	3,3
0,569	48,9	6,8
0,5695	49,8	8,7
0,57	48,5	9,8
0,5705	45,8	11,1
0,571	42,2	12,8
0,5715	38,5	14,9
0,572	35,8	17,9
0,5725	34,6	21,7
0,573	34,8	25,8
0,5735	35,8	28,5
0,574	36,7	29,0
0,5745	36,7	27,2
0,575	35,8	23,8
0,5755	33,9	19,4
0,576	31,2	14,3
0,5765	28,4	8,9
0,577	26,3	4,5
0,5775	25,5	1,7
0,578	25,6	0,3
0,5785	26,0	-0,8
0,579	26,1	-2,1
0,5795	25,9	-3,8
0,58	25,7	-5,9
0,5805	25,4	-8,2
0,581	24,8	-10,0
0,5815	24,0	-11,1
0,582	23,2	-11,2
0,5825	22,8	-10,2
0,583	23,0	-8,1
0,5835	23,8	-4,9
0,584	25,1	-1,0
0,5845	26,6	3,6
0,585	27,8	8,2
0,5855	27,8	11,5
0,586	26,6	12,8
0,5865	24,4	12,1
0,587	22,0	10,0
0,5875	20,0	7,3
0,588	18,5	5,3
0,5885	18,1	5,6
0,589	19,0	8,7
0,5895	21,0	13,8
0,59	23,5	18,9
0,5905	25,6	22,4
0,591	26,8	23,5
0,5915	26,9	22,6
0,592	26,2	20,7
0,5925	25,2	18,0
0,593	24,0	14,4
0,5935	22,7	10,5
0,594	21,6	7,0
0,5945	21,1	4,5
0,595	21,3	2,6
0,5955	22,0	0,9
0,596	22,8	-0,9
0,5965	23,4	-2,8
0,597	23,3	-5,1
0,5975	22,4	-7,6
0,598	20,8	-10,1
0,5985	19,0	-11,8
0,599	17,4	-12,1
0,5995	16,5	-10,8
0,6	16,8	-8,1
0,6005	17,9	-4,8
0,601	19,3	-1,4
0,6015	20,1	1,7
0,602	19,6	3,6
0,6025	17,6	3,7
0,603	14,9	3,0
0,6035	12,5	2,9
0,604	11,1	3,8
0,6045	10,4	5,1
0,605	10,0	6,8
0,6055	10,2	9,3
0,606	11,1	13,0
0,6065	12,8	17,4
0,607	14,9	21,3
0,6075	17,2	23,8
0,608	19,2	24,3
0,6085	20,9	23,1
0,609	22,3	20,5
0,6095	23,2	17,3
0,61	24,4	14,2
0,6105	26,2	12,0
0,611	28,8	11,0
0,6115	31,5	11,0
0,612	33,3	10,9
0,6125	33,5	10,2
0,613	31,3	8,5
0,6135	26,4	5,8
0,614	19,8	2,5
0,6145	13,3	-0,8
0,615	7,7	-3,8
0,6155	3,3	-6,8
0,616	-0,1	-10,1
0,6165	-2,5	-13,1
0,617	-3,5	-14,8
0,6175	-2,6	-14,1
0,618	0,1	-11,0
0,6185	3,7	-6,5
0,619	7,3	-2,1
0,6195	10,1	1,7
0,62	12,3	5,1
0,6205	14,2	8,6
0,621	16,2	12,2
0,6215	18,5	15,8
0,622	21,2	19,4
0,6225	24,0	22,9
0,623	26,6	25,9
0,6235	29,1	27,6
0,624	31,3	27,6
0,6245	32,3	25,8
0,625	31,2	22,3
0,6255	28,0	17,5
0,626	23,3	11,4
0,6265	18,0	5,3
0,627	13,7	0,8
0,6275	11,2	-1,0
0,628	10,5	-1,3
0,6285	10,7	-1,5
0,629	10,9	-2,6
0,6295	11,0	-4,4
0,63	10,7	-6,5
0,6305	10,2	-8,8
0,631	9,3	-10,9
0,6315	8,4	-12,5
0,632	7,7	-13,0
0,6325	7,5	-12,2
0,633	7,8	-10,1
0,6335	8,5	-6,8
0,634	9,4	-3,0
0,6345	11,2	1,3
0,635	14,2	5,5
0,6355	18,1	8,5
0,636	21,9	9,9
0,6365	24,4	10,0
0,637	25,0	10,1
0,6375	24,1	10,8
0,638	22,3	11,9
0,6385	20,8	13,6
0,639	20,8	16,0
0,6395	22,6	19,1
0,64	25,8	22,6
0,6405	29,1	25,5
0,641	30,8	26,9
0,6415	30,1	26,1
0,642	27,6	22,9
0,6425	23,8	17,3
0,643	19,4	10,1
0,6435	15,4	3,1
0,644	12,9	-1,6
0,6445	12,2	-3,4
0,645	12,8	-3,2
0,6455	13,8	-2,5
0,646	14,9	-2,4
0,6465	16,1	-3,1
0,647	17,0	-4,8
0,6475	17,2	-6,9
0,648	16,9	-8,9
0,6485	16,5	-9,8
0,649	16,8	-9,5
0,6495	18,0	-7,8
0,65	19,8	-5,1
0,6505	21,9	-1,7
0,651	23,8	2,3
0,6515	25,3	6,3
0,652	25,1	8,8
0,6525	22,9	8,9
0,653	19,2	7,2
0,6535	15,8	5,3
0,654	13,6	4,4
0,6545	12,6	4,8
0,655	12,6	6,4
0,6555	14,2	9,2
0,656	17,9	12,5
0,6565	22,7	15,9
0,657	26,6	18,7
0,6575	27,8	20,2
0,658	26,3	20,2
0,6585	23,3	18,9
0,659	19,9	16,6
0,6595	16,7	13,3
0,66	13,5	9,6
0,6605	10,5	6,1
0,661	8,0	3,7
0,6615	6,2	2,1
0,662	5,0	0,6
0,6625	4,4	-1,1
0,663	4,8	-2,8
0,6635	5,8	-4,6
0,664	6,9	-6,5
0,6645	7,2	-8,5
0,665	6,6	-10,3
0,6655	5,4	-11,2
0,666	4,8	-10,9
0,6665	5,2	-9,2
0,667	6,7	-6,3
0,6675	9,0	-2,5
0,668	11,8	1,7
0,6685	14,7	5,7
0,669	17,1	8,4
0,6695	17,9	9,9
0,67	16,7	10,8
0,6705	13,4	11,5
0,671	9,1	12,5
0,6715	4,8	13,6
0,672	1,4	15,3
0,6725	-0,8	17,8
0,673	-1,9	20,8
0,6735	-2,0	23,7
0,674	-1,7	25,3
0,6745	-1,0	25,3
0,675	0,4	23,8
0,6755	3,1	21,3
0,676	7,2	18,0
0,6765	12,1	14,2
0,677	17,5	10,6
0,6775	24,0	7,9
0,678	32,3	6,4
0,6785	42,1	5,4
0,679	51,1	4,0
0,6795	56,7	1,5
0,68	57,2	-2,2
0,6805	53,3	-6,9
0,681	46,3	-12,0
0,6815	38,4	-16,7
0,682	31,3	-19,8
0,6825	26,4	-20,5
0,683	24,0	-18,8
0,6835	23,6	-15,4
0,684	24,1	-11,1
0,6845	24,9	-6,3
0,685	25,8	-1,9
0,6855	26,4	1,5
0,686	26,6	3,4
0,6865	26,3	4,5
0,687	25,8	5,7
0,6875	25,3	7,3
0,688	24,8	9,2
0,6885	24,2	11,5
0,689	24,1	14,3
0,6895	25,0	17,3
0,69	26,8	20,2
0,6905	29,0	22,4
0,691	30,5	23,6
0,6915	30,7	23,4
0,692	29,5	22,1
0,6925	27,4	19,8
0,693	25,2	16,7
0,6935	23,5	13,3
0,694	22,7	10,7
0,6945	22,3	8,8
0,695	22,0	6,9
0,6955	21,7	4,6
0,696	21,9	2,1
0,6965	22,8	-0,1
0,697	23,7	-2,3
0,6975	23,8	-4,8
0,698	22,9	-7,5
0,6985	21,3	-10,4
0,699	19,6	-13,1
0,6995	18,1	-14,9
0,7	16,9	-15,2
0,7005	15,7	-13,8
0,701	14,0	-10,4
0,7015	11,7	-5,7
0,702	9,3	-0,4
0,7025	7,4	4,3
0,703	6,4	8,3
0,7035	6,4	11,2
0,704	7,0	13,2
0,7045	7,8	13,9
0,705	8,7	14,3
0,7055	10,4	15,3
0,706	13,3	17,8
0,7065	17,3	21,6
0,707	21,6	25,8
0,7075	25,6	29,4
0,708	29,1	31,4
0,7085	31,4	31,0
0,709	32,5	28,2
0,7095	32,1	23,1
0,71	30,6	16,9
0,7105	28,4	11,0
0,711	26,4	6,5
0,7115	24,9	2,9
0,712	23,2	-1,2
0,7125	20,2	-6,2
0,713	15,5	-11,4
0,7135	10,1	-15,5
0,714	4,7	-17,9
0,7145	-0,2	-19,2
0,715	-4,6	-19,8
0,7155	-7,9	-20,0
0,716	-9,6	-19,4
0,7165	-9,3	-17,8
0,717	-7,4	-15,0
0,7175	-4,2	-10,7
0,718	0,0	-5,0
0,7185	4,7	1,2
0,719	9,0	6,4
0,7195	12,6	10,0
0,72	15,4	12,3
0,7205	17,6	13,2
0,721	19,2	13,0
0,7215	20,2	11,9
0,722	21,0	11,2
0,7225	22,1	11,9
0,723	23,5	13,7
0,7235	24,6	15,2
0,724	24,4	15,4
0,7245	22,8	14,3
0,725	20,6	12,5
0,7255	18,6	11,0
0,726	17,2	9,9
0,7265	16,2	9,2
0,727	15,7	8,7
0,7275	16,2	8,7
0,728	17,7	8,9
0,7285	19,7	9,1
0,729	21,5	8,5
0,7295	22,5	7,1
0,73	22,1	4,1
0,7305	19,7	-1,0
0,731	15,6	-7,8
0,7315	10,8	-15,0
0,732	7,0	-20,9
0,7325	4,8	-24,4
0,733	4,5	-25,1
0,7335	5,9	-22,9
0,734	9,0	-18,4
0,7345	13,3	-12,3
0,735	17,8	-5,8
0,7355	21,4	-0,6
0,736	23,2	2,9
0,7365	23,3	5,2
0,737	22,2	7,1
0,7375	20,2	9,0
0,738	17,8	10,7
0,7385	15,7	12,2
0,739	14,5	13,7
0,7395	14,9	15,3
0,74	16,8	16,8
0,7405	19,9	18,0
0,741	23,0	18,4
0,7415	24,8	17,6
0,742	24,8	15,4
0,7425	23,0	11,8
0,743	20,2	7,0
0,7435	17,9	2,4
0,744	18,1	-0,7
0,7445	21,1	-2,2
0,745	24,8	-3,1
0,7455	26,5	-4,2
0,746	25,4	-5,7
0,7465	22,5	-7,3
0,747	19,3	-9,3
0,7475	16,4	-11,7
0,748	13,8	-14,3
0,7485	11,3	-16,4
0,749	8,8	-17,4
0,7495	6,9	-17,0
0,75	5,8	-15,6
0,7505	6,0	-13,3
0,751	7,4	-10,1
0,7515	9,3	-5,7
0,752	10,8	-1,1
0,7525	11,6	2,8
0,753	11,9	5,6
0,7535	12,8	7,5
0,754	14,8	8,8
0,7545	17,9	9,6
0,755	21,2	10,4
0,7555	24,2	11,9
0,756	26,7	14,3
0,7565	28,5	17,4
0,757	29,5	20,3
0,7575	29,8	22,0
0,758	29,5	21,8
0,7585	29,0	20,0
0,759	28,8	17,0
0,7595	29,2	13,4
0,76	30,6	10,2
0,7605	33,3	8,0
0,761	36,5	7,1
0,7615	39,2	6,6
0,762	40,6	5,5
0,7625	40,7	3,2
0,763	39,5	0,2
0,7635	37,3	-3,3
0,764	34,1	-6,6
0,7645	30,3	-9,3
0,765	26,1	-11,0
0,7655	21,8	-11,7
0,766	17,9	-11,3
0,7665	14,5	-10,0
0,767	11,7	-8,0
0,7675	10,0	-5,3
0,768	9,6	-2,2
0,7685	10,3	0,7
0,769	11,4	2,4
0,7695	11,9	2,9
0,77	11,9	3,1
0,7705	11,8	3,8
0,771	12,1	5,8
0,7715	13,1	8,9
0,772	14,8	13,3
0,7725	17,3	18,3
0,773	20,6	23,4
0,7735	24,6	27,9
0,774	28,7	31,1
0,7745	32,0	32,5
0,775	33,7	31,5
0,7755	33,4	27,7
0,776	31,2	20,8
0,7765	27,2	11,8
0,777	22,7	2,9
0,7775	19,4	-3,7
0,778	18,3	-7,3
0,7785	19,3	-8,8
0,779	21,3	-9,2
0,7795	23,0	-9,5
0,78	23,8	-10,0
0,7805	23,4	-11,1
0,781	21,8	-12,8
0,7815	19,0	-14,8
0,782	15,7	-16,4
0,7825	12,9	-16,9
0,783	11,5	-15,8
0,7835	11,4	-13,3
0,784	11,9	-9,8
0,7845	12,5	-5,5
0,785	12,9	-0,7
0,7855	12,4	3,6
0,786	10,3	6,6
0,7865	6,4	8,4
0,787	1,4	9,6
0,7875	-3,6	10,6
0,788	-7,8	11,4
0,7885	-10,5	12,2
0,789	-11,5	13,0
0,7895	-10,9	14,2
0,79	-8,7	15,8
0,7905	-5,5	17,8
0,791	-2,2	19,5
0,7915	0,9	20,2
0,792	4,2	19,6
0,7925	8,3	17,7
0,793	13,6	14,7
0,7935	19,8	11,4
0,794	26,0	8,9
0,7945	31,8	7,8
0,795	36,5	7,6
0,7955	39,3	7,5
0,796	40,2	6,8
0,7965	39,0	5,5
0,797	36,0	3,4
0,7975	31,4	0,6
0,798	25,7	-2,6
0,7985	19,7	-5,7
0,799	14,6	-8,0
0,7995	11,3	-8,9
0,8	9,9	-8,5
0,8005	9,9	-7,0
0,801	11,2	-4,8
0,8015	13,4	-2,1
0,802	15,7	0,1
0,8025	17,2	0,6
0,803	17,6	-0,4
0,8035	17,7	-1,4
0,804	18,5	-1,0
0,8045	19,7	1,1
0,805	20,7	4,4
0,8055	21,4	8,2
0,806	22,0	12,0
0,8065	22,7	15,6
0,807	23,2	18,3
0,8075	23,1	19,8
0,808	22,0	19,8
0,8085	19,9	18,7
0,809	17,0	16,8
0,8095	13,9	14,4
0,81	10,9	12,3
0,8105	8,3	11,0
0,811	5,9	10,3
0,8115	3,3	9,2
0,812	0,4	6,8
0,8125	-1,9	3,6
0,813	-2,6	0,6
0,8135	-1,3	-1,5
0,814	1,3	-2,8
0,8145	3,9	-3,6
0,815	6,1	-3,8
0,8155	8,0	-3,1
0,816	10,2	-1,4
0,8165	13,0	1,0
0,817	16,5	3,7
0,8175	20,3	6,2
0,818	24,3	7,8
0,8185	27,3	7,4
0,819	28,1	4,0
0,8195	26,7	-1,8
0,82	24,1	-7,4
0,8205	21,9	-10,3
0,821	20,9	-10,0
0,8215	21,2	-7,3
0,822	22,4	-3,2
0,8225	24,1	1,8
0,823	25,9	7,0
0,8235	27,6	11,5
0,824	28,8	14,4
0,8245	29,1	15,3
0,825	28,5	14,6
0,8255	27,2	12,8
0,826	25,3	10,3
0,8265	23,0	7,4
0,827	20,9	4,9
0,8275	19,3	3,3
0,828	18,3	2,4
0,8285	17,6	1,4
0,829	17,1	-0,3
0,8295	16,9	-2,3
0,83	16,8	-4,6
0,8305	16,1	-7,2
0,831	14,3	-9,9
0,8315	11,8	-12,2
0,832	9,2	-13,5
0,8325	7,0	-13,8
0,833	5,4	-13,0
0,8335	4,5	-11,7
0,834	4,4	-9,7
0,8345	5,5	-6,8
0,835	7,6	-3,0
0,8355	9,8	0,5
0,836	11,3	3,2
0,8365	11,7	5,1
0,837	11,3	6,6
0,8375	10,3	7,8
0,838	9,1	8,5
0,8385	8,4	9,5
0,839	8,9	11,4
0,8395	10,5	14,3
0,84	12,7	17,8
0,8405	14,8	20,6
0,841	16,2	22,0
0,8415	16,7	21,9
0,842	16,3	20,5
0,8425	15,1	17,9
0,843	13,6	14,7
0,8435	12,5	11,4
0,844	12,4	9,3
0,8445	13,7	8,5
0,845	15,4	8,3
0,8455	16,7	7,8
0,846	17,3	6,4
0,8465	17,1	4,6
0,847	16,0	2,2
0,8475	14,2	-1,0
0,848	11,5	-4,8
0,8485	8,6	-8,7
0,849	6,1	-11,6
0,8495	4,3	-12,8
0,85	3,5	-11,8
0,8505	3,1	-9,2
0,851	3,1	-4,9
0,8515	3,8	0,7
0,852	5,1	6,6
0,8525	6,8	11,6
0,853	9,0	15,2
0,8535	11,2	17,2
0,854	11,9	17,3
0,8545	9,8	15,8
0,855	5,5	13,3
0,8555	1,2	11,6
0,856	-1,2	11,7
0,8565	-1,0	13,7
0,857	1,4	16,9
0,8575	5,2	19,9
0,858	9,5	21,5
0,8585	13,7	21,1
0,859	17,4	18,9
0,8595	20,2	15,3
0,86	21,9	11,1
0,8605	23,0	7,4
0,861	23,8	4,8
0,8615	24,2	2,8
0,862	23,3	0,5
0,8625	21,3	-2,2
0,863	18,8	-4,8
0,8635	16,2	-6,7
0,864	13,4	-8,0
0,8645	10,3	-8,7
0,865	6,9	-8,7
0,8655	3,7	-8,1
0,866	1,2	-6,7
0,8665	0,0	-4,6
0,867	0,5	-1,7
0,8675	2,6	1,8
0,868	5,8	5,5
0,8685	9,0	8,6
0,869	11,2	10,1
0,8695	12,1	10,0
0,87	12,5	8,7
0,8705	13,3	7,2
0,871	14,7	5,9
0,8715	16,1	5,6
0,872	17,4	7,0
0,8725	18,4	9,7
0,873	19,1	12,6
0,8735	19,5	14,5
0,874	19,3	15,1
0,8745	18,4	14,5
0,875	16,5	13,1
0,8755	14,1	11,2
0,876	11,8	8,8
0,8765	10,3	6,4
0,877	9,7	4,4
0,8775	9,9	3,3
0,878	10,4	2,5
0,8785	10,5	1,3
0,879	9,1	-0,4
0,8795	5,9	-2,4
0,88	1,1	-4,6
0,8805	-4,5	-7,1
0,881	-9,9	-9,9
0,8815	-14,7	-12,6
0,882	-18,3	-14,7
0,8825	-20,2	-15,3
0,883	-20,1	-14,3
0,8835	-18,1	-11,9
0,884	-14,4	-8,5
0,8845	-9,6	-4,4
0,885	-4,4	-0,1
0,8855	-0,2	3,4
0,886	1,7	5,4
0,8865	1,3	6,4
0,887	0,3	7,7
0,8875	0,4	9,6
0,888	2,4	12,1
0,8885	6,0	15,0
0,889	10,6	18,2
0,8895	15,6	21,3
0,89	20,0	23,7
0,8905	22,8	24,9
0,891	22,9	24,7
0,8915	20,3	23,3
0,892	16,3	21,1
0,8925	12,3	18,5
0,893	9,1	15,7
0,8935	7,7	13,0
0,894	9,3	11,8
0,8945	14,3	12,5
0,895	21,2	14,3
0,8955	27,4	15,6
0,896	30,4	15,3
0,8965	29,8	13,1
0,897	26,3	9,4
0,8975	21,2	4,8
0,898	16,4	0,1
0,8985	13,5	-4,0
0,899	13,1	-7,2
0,8995	15,0	-9,4
0,9	17,7	-10,5
0,9005	20,0	-10,6
0,901	21,3	-9,6
0,9015	21,9	-7,7
0,902	22,2	-5,3
0,9025	22,1	-3,3
0,903	21,6	-2,1
0,9035	21,4	-1,0
0,904	22,1	0,8
0,9045	23,7	3,4
0,905	25,7	6,5
0,9055	28,0	9,8
0,906	30,3	13,3
0,9065	32,6	16,6
0,907	34,2	19,1
0,9075	34,7	20,6
0,908	33,9	20,8
0,9085	32,1	20,1
0,909	29,4	18,7
0,9095	26,0	16,3
0,91	22,2	13,2
0,9105	18,8	10,3
0,911	16,4	8,4
0,9115	15,1	7,6
0,912	14,4	7,3
0,9125	14,3	7,3
0,913	14,8	7,4
0,9135	15,3	7,1
0,914	14,9	5,5
0,9145	13,3	2,1
0,915	10,9	-2,6
0,9155	8,3	-7,5
0,916	6,4	-11,4
0,9165	5,8	-13,1
0,917	6,7	-12,6
0,9175	8,8	-10,5
0,918	11,6	-7,4
0,9185	14,4	-3,9
0,919	16,0	-1,0
0,9195	15,4	0,6
0,92	13,0	1,2
0,9205	9,9	1,7
0,921	7,1	2,7
0,9215	5,2	4,4
0,922	4,8	6,8
0,9225	6,0	9,8
0,923	8,7	13,2
0,9235	12,3	16,5
0,924	15,7	18,8
0,9245	18,2	19,8
0,925	19,3	19,3
0,9255	19,3	17,6
0,926	18,9	14,9
0,9265	18,4	11,8
0,927	17,9	9,5
0,9275	17,4	8,5
0,928	17,6	8,5
0,9285	18,9	9,0
0,929	21,3	9,3
0,9295	24,3	9,1
0,93	26,6	7,8
0,9305	26,8	5,2
0,931	24,6	1,8
0,9315	20,4	-1,6
0,932	15,3	-4,2
0,9325	10,3	-6,2
0,933	6,2	-7,7
0,9335	3,3	-8,7
0,934	2,0	-8,7
0,9345	2,9	-7,0
0,935	6,4	-3,6
0,9355	11,8	0,4
0,936	16,7	3,5
0,9365	19,2	5,4
0,937	18,9	6,5
0,9375	17,2	7,7
0,938	15,3	9,0
0,9385	14,7	11,1
0,939	15,6	13,9
0,9395	17,8	17,3
0,94	20,3	20,4
0,9405	22,6	22,4
0,941	24,3	23,2
0,9415	25,0	23,0
0,942	24,9	22,3
0,9425	24,3	21,2
0,943	23,5	19,1
0,9435	22,6	15,9
0,944	21,4	12,4
0,9445	20,2	9,3
0,945	18,8	6,7
0,9455	17,4	4,3
0,946	16,3	2,4
0,9465	15,7	0,5
0,947	15,4	-2,1
0,9475	14,9	-5,9
0,948	13,8	-10,9
0,9485	12,0	-16,1
0,949	10,0	-20,1
0,9495	8,4	-21,6
0,95	7,7	-20,8
0,9505	7,8	-18,2
0,951	8,3	-14,5
0,9515	9,2	-10,0
0,952	10,1	-5,2
0,9525	10,2	-1,2
0,953	9,6	1,7
0,9535	8,6	3,8
0,954	7,8	6,0
0,9545	7,5	8,3
0,955	7,8	10,9
0,9555	8,9	13,9
0,956	11,0	17,3
0,9565	13,9	20,7
0,957	17,1	23,3
0,9575	20,0	24,7
0,958	22,3	24,5
0,9585	23,4	22,9
0,959	23,4	20,2
0,9595	22,3	16,3
0,96	20,9	12,0
0,9605	20,0	8,8
0,961	19,8	7,5
0,9615	20,2	7,6
0,962	20,3	7,7
0,9625	19,8	7,3
0,963	19,0	6,3
0,9635	18,2	4,5
0,964	17,0	1,4
0,9645	15,3	-2,7
0,965	13,3	-7,1
0,9655	11,9	-10,6
0,966	11,5	-12,5
0,9665	12,4	-12,5
0,967	14,5	-10,8
0,9675	17,1	-8,0
0,968	19,8	-4,4
0,9685	22,4	-0,7
0,969	24,7	2,3
0,9695	26,4	4,2
0,97	27,3	5,3
0,9705	27,4	6,3
0,971	26,9	7,5
0,9715	26,1	9,1
0,972	25,7	11,4
0,9725	26,0	14,3
0,973	27,1	17,3
0,9735	28,8	20,0
0,974	30,5	21,7
0,9745	31,5	22,2
0,975	31,5	21,4
0,9755	30,9	19,3
0,976	29,8	16,3
0,9765	28,3	12,6
0,977	26,7	9,1
0,9775	25,8	6,8
0,978	25,9	5,5
0,9785	26,8	4,5
0,979	27,6	3,0
0,9795	28,0	0,9
0,98	28,1	-1,5
0,9805	27,8	-4,0
0,981	27,3	-6,5
0,9815	26,4	-8,8
0,982	25,3	-10,4
0,9825	24,4	-10,9
0,983	23,6	-9,9
0,9835	22,8	-7,6
0,984	21,8	-4,1
0,9845	20,5	0,0
0,985	19,0	3,8
0,9855	17,0	6,3
0,986	14,3	7,3
0,9865	11,7	7,6
0,987	9,8	8,6
0,9875	8,7	10,3
0,988	7,9	12,8
0,9885	7,2	15,9
0,989	6,6	19,9
0,9895	6,3	24,3
0,99	6,3	28,4
0,9905	6,6	31,0
0,991	7,3	31,6
0,9915	8,3	30,2
0,992	9,1	27,1
0,9925	9,4	22,7
0,993	9,0	17,3
0,9935	8,6	11,3
0,994	8,8	6,1
0,9945	10,1	2,2
0,995	12,3	-0,3
0,9955	14,9	-2,1
0,996	17,2	-3,3
0,9965	18,9	-4,1
0,997	19,9	-5,0
0,9975	20,1	-6,4
0,998	20,0	-8,1
0,9985	19,6	-9,4
0,999	19,2	-9,5
0,9995	19,1	-8,3
1	19,3	-5,9
1,0005	19,7	-3,0
1,001	20,3	0,5
1,0015	21,2	4,7
1,002	22,3	9,2
1,0025	23,3	13,1
1,003	24,1	16,1
1,0035	24,8	18,4
1,004	26,1	20,3
1,0045	27,9	21,4
1,005	29,8	21,8
1,0055	31,2	22,1
1,006	32,2	22,8
1,0065	33,0	23,7
1,007	33,9	23,9
1,0075	34,4	22,7
1,008	33,9	19,8
1,0085	32,8	15,8
1,009	32,1	11,5
1,0095	31,9	7,2
1,01	31,5	3,0
1,0105	30,2	-0,5
1,011	28,3	-2,7
1,0115	26,3	-3,4
1,012	24,3	-3,7
1,0125	22,3	-4,3
1,013	20,6	-5,2
1,0135	19,4	-6,6
1,014	18,4	-8,6
1,0145	17,2	-11,2
1,015	15,6	-13,7
1,0155	14,2	-15,3
1,016	13,2	-15,4
1,0165	13,2	-14,2
1,017	14,1	-12,0
1,0175	15,9	-9,4
1,018	18,7	-6,0
1,0185	22,1	-2,3
1,019	25,5	0,9
1,0195	28,1	3,0
1,02	29,6	4,3
1,0205	30,2	5,9
1,021	30,0	8,2
1,0215	29,5	11,0
1,022	29,5	14,1
1,0225	30,3	17,6
1,023	31,3	21,2
1,0235	31,7	24,5
1,024	31,3	27,2
1,0245	30,4	28,7
1,025	29,3	29,0
1,0255	28,3	27,9
1,026	26,9	25,3
1,0265	25,1	21,4
1,027	23,0	17,1
1,0275	21,3	13,4
1,028	20,4	10,6
1,0285	20,2	8,7
1,029	20,8	7,7
1,0295	21,7	7,7
1,03	22,3	7,8
1,0305	22,1	7,3
1,031	21,2	5,2
1,0315	20,7	2,1
1,032	21,3	-1,0
1,0325	22,9	-3,5
1,033	24,7	-4,9
1,0335	26,6	-5,2
1,034	28,7	-4,2
1,0345	30,8	-1,4
1,035	31,6	2,6
1,0355	30,0	6,3
1,036	26,3	8,2
1,0365	22,1	8,3
1,037	18,9	7,8
1,0375	17,6	7,8
1,038	17,9	8,7
1,0385	18,9	10,3
1,039	19,9	13,0
1,0395	20,2	16,3
1,04	19,5	19,5
1,0405	18,0	21,0
1,041	16,0	20,3
1,0415	13,6	17,5
1,042	10,9	13,8
1,0425	8,2	10,2
1,043	5,5	7,2
1,0435	3,5	4,7
1,044	3,0	3,1
1,0445	4,3	2,6
1,045	7,0	2,5
1,0455	9,8	2,1
1,046	12,5	1,2
1,0465	14,9	-0,4
1,047	17,2	-2,5
1,0475	19,4	-4,8
1,048	21,8	-6,9
1,0485	23,7	-9,0
1,049	24,8	-10,7
1,0495	25,3	-11,4
1,05	26,0	-11,2
1,0505	27,4	-9,9
1,051	29,6	-7,5
1,0515	31,8	-4,0
1,052	33,0	0,0
1,0525	32,3	3,4
1,053	29,6	5,8
1,0535	25,8	7,9
1,054	21,9	10,1
1,0545	18,6	12,3
1,055	16,4	14,7
1,0555	16,0	17,9
1,056	17,4	22,2
1,0565	20,2	26,8
1,057	22,8	30,3
1,0575	24,0	31,8
1,058	23,5	30,7
1,0585	21,9	27,7
1,059	20,3	23,5
1,0595	18,9	18,9
1,06	18,3	14,4
1,0605	18,9	10,7
1,061	21,0	8,2
1,0615	24,2	6,6
1,062	27,0	4,7
1,0625	28,2	1,7
1,063	27,6	-2,2
1,0635	25,7	-6,3
1,064	23,0	-10,0
1,0645	20,1	-13,1
1,065	17,0	-15,3
1,0655	14,2	-16,5
1,066	12,0	-16,3
1,0665	10,6	-14,9
1,067	10,0	-12,5
1,0675	10,5	-9,4
1,068	12,1	-5,6
1,0685	14,4	-1,6
1,069	16,6	2,0
1,0695	17,8	4,6
1,07	18,3	6,4
1,0705	18,4	8,3
1,071	18,5	10,5
1,0715	18,5	13,2
1,072	18,6	16,3
1,0725	18,7	19,8
1,073	18,4	23,5
1,0735	17,7	26,5
1,074	16,4	28,1
1,0745	14,9	28,2
1,075	13,7	26,9
1,0755	12,9	24,8
1,076	12,4	22,1
1,0765	12,0	18,6
1,077	11,7	15,1
1,0775	12,0	12,5
1,078	13,0	11,0
1,0785	14,5	9,9
1,079	16,0	8,2
1,0795	17,5	5,6
1,08	18,8	2,4
1,0805	20,3	-1,4
1,081	22,6	-5,3
1,0815	26,1	-8,6
1,082	30,3	-10,8
1,0825	34,3	-12,0
1,083	37,3	-12,2
1,0835	39,1	-11,5
1,084	39,8	-9,8
1,0845	39,6	-6,9
1,085	38,7	-3,0
1,0855	37,0	1,4
1,086	34,5	5,2
1,0865	31,3	8,3
1,087	28,1	11,1
1,0875	25,5	14,1
1,088	23,8	17,3
1,0885	23,0	20,8
1,089	23,0	24,5
1,0895	23,2	28,0
1,09	23,3	30,8
1,0905	23,2	32,0
1,091	22,8	30,8
1,0915	21,8	26,9
1,092	19,3	21,2
1,0925	15,2	15,0
1,093	9,8	9,4
1,0935	4,8	5,4
1,094	1,8	3,7
1,0945	1,8	3,8
1,095	4,2	5,1
1,0955	7,4	5,9
1,096	10,0	5,8
1,0965	11,3	4,9
1,097	11,2	3,4
1,0975	10,2	1,5
1,098	8,7	-0,7
1,0985	6,8	-3,1
1,099	4,9	-5,2
1,0995	3,5	-6,6
1,1	3,4	-6,8
1,1005	5,6	-5,0
1,101	10,1	-1,2
1,1015	16,0	4,3
1,102	21,7	9,8
1,1025	25,7	13,2
1,103	27,3	13,8
1,1035	26,7	12,8
1,104	24,3	11,9
1,1045	21,1	12,3
1,105	18,2	13,9
1,1055	16,3	16,3
1,106	15,7	18,5
1,1065	16,1	19,8
1,107	17,1	20,1
1,1075	18,0	19,5
1,108	18,3	18,5
1,1085	17,6	17,3
1,109	15,7	15,8
1,1095	12,8	13,6
1,11	9,6	11,1
1,1105	6,5	9,0
1,111	3,8	8,2
1,1115	1,0	8,2
1,112	-2,6	8,2
1,1125	-7,0	7,8
1,113	-11,4	7,0
1,1135	-14,8	6,3
1,114	-17,2	5,6
1,1145	-18,7	5,0
1,115	-19,6	4,5
1,1155	-19,8	4,3
1,116	-19,3	4,5
1,1165	-17,8	5,4
1,117	-15,5	7,0
1,1175	-12,4	9,3
1,118	-8,4	12,8
1,1185	-3,2	16,9
1,119	3,8	20,2
1,1195	12,3	21,1
1,12	21,1	19,5
1,1205	27,8	16,9
1,121	31,1	15,1
1,1215	30,9	14,8
1,122	29,1	16,2
1,1225	27,2	19,0
1,123	25,8	22,4
1,1235	24,8	25,4
1,124	23,7	26,9
1,1245	22,1	26,6
1,125	20,2	24,6
1,1255	18,2	21,9
1,126	16,2	18,7
1,1265	14,0	15,0
1,127	11,4	10,8
1,1275	8,6	6,9
1,128	6,2	3,6
1,1285	4,4	0,4
1,129	3,2	-3,1
1,1295	2,5	-6,8
1,13	2,2	-9,8
1,1305	2,1	-12,0
1,131	2,2	-13,8
1,1315	2,2	-15,3
1,132	2,2	-16,1
1,1325	2,2	-15,7
1,133	2,4	-14,1
1,1335	2,8	-11,8
1,134	2,9	-9,5
1,1345	2,8	-7,5
1,135	2,6	-5,4
1,1355	2,4	-3,0
1,136	2,0	-0,5
1,1365	1,5	2,1
1,137	1,0	4,9
1,1375	1,0	8,0
1,138	1,3	11,1
1,1385	1,7	14,1
1,139	2,0	16,9
1,1395	2,2	19,7
1,14	2,4	21,9
1,1405	2,6	23,3
1,141	2,5	23,6
1,1415	1,8	22,4
1,142	0,7	20,1
1,1425	-0,4	17,0
1,143	-1,5	13,5
1,1435	-2,4	10,0
1,144	-2,8	7,1
1,1445	-2,2	5,1
1,145	-1,1	3,5
1,1455	-0,1	1,7
1,146	0,6	-0,3
1,1465	1,2	-2,2
1,147	1,8	-4,0
1,1475	2,2	-6,0
1,148	2,0	-8,2
1,1485	1,3	-10,3
1,149	0,5	-11,9
1,1495	-0,0	-13,0
1,15	-0,2	-13,3
1,1505	-0,3	-12,4
1,151	-0,1	-10,4
1,1515	1,1	-7,2
1,152	3,1	-3,3
1,1525	5,3	0,7
1,153	6,6	3,8
1,1535	7,0	6,2
1,154	6,9	8,1
1,1545	6,6	9,5
1,155	6,4	10,9
1,1555	6,8	12,8
1,156	8,1	15,5
1,1565	10,1	18,8
1,157	12,2	21,7
1,1575	13,7	23,6
1,158	14,2	24,1
1,1585	13,6	23,3
1,159	12,3	21,4
1,1595	10,7	18,8
1,16	9,0	15,6
1,1605	7,8	13,0
1,161	7,5	11,4
1,1615	8,3	10,7
1,162	9,6	10,0
1,1625	10,9	9,1
1,163	12,0	8,1
1,1635	12,6	6,9
1,164	12,4	5,2
1,1645	10,9	2,5
1,165	8,2	-1,2
1,1655	4,7	-5,3
1,166	1,3	-8,7
1,1665	-1,4	-10,6
1,167	-3,2	-10,9
1,1675	-3,8	-10,1
1,168	-3,3	-8,3
1,1685	-1,9	-5,4
1,169	-0,1	-2,3
1,1695	1,3	0,2
1,17	2,2	2,0
1,1705	2,5	3,8
1,171	2,6	6,0
1,1715	2,3	8,4
1,172	1,9	11,1
1,1725	1,8	14,0
1,173	2,5	17,2
1,1735	3,6	19,7
1,174	4,5	20,8
1,1745	4,7	20,4
1,175	3,9	18,8
1,1755	2,3	16,4
1,176	-0,1	13,5
1,1765	-2,7	9,9
1,177	-4,7	6,3
1,1775	-6,1	3,8
1,178	-7,3	2,8
1,1785	-9,4	2,8
1,179	-12,7	2,8
1,1795	-16,3	2,3
1,18	-19,0	1,0
1,1805	-20,8	-0,9
1,181	-21,6	-3,4
1,1815	-21,7	-5,8
1,182	-21,3	-7,6
1,1825	-20,7	-8,4
1,183	-19,4	-8,3
1,1835	-17,1	-7,2
1,184	-13,3	-4,9
1,1845	-8,0	-1,5
1,185	-1,7	2,7
1,1855	4,6	6,6
1,186	10,5	9,1
1,1865	16,1	10,4
1,187	21,3	11,4
1,1875	25,6	12,6
1,188	28,2	13,9
1,1885	28,9	15,3
1,189	28,1	17,1
1,1895	26,3	19,0
1,19	24,2	20,5
1,1905	22,5	21,2
1,191	21,5	21,0
1,1915	21,0	20,2
1,192	20,6	19,0
1,1925	19,7	17,3
1,193	18,1	15,1
1,1935	15,7	12,3
1,194	13,1	9,6
1,1945	10,6	6,9
1,195	8,5	4,1
1,1955	6,9	1,3
1,196	5,9	-1,2
1,1965	5,5	-2,8
1,197	5,3	-4,2
1,1975	4,6	-5,6
1,198	3,1	-7,3
1,1985	1,2	-8,8
1,199	0,0	-9,7
1,1995	0,3	-9,3
1,2	2,4	-7,5
1,2005	5,7	-4,6
1,201	9,6	-1,0
1,2015	13,6	2,9
1,202	16,8	6,2
1,2025	18,7	8,0
1,203	18,8	8,4
1,2035	18,2	8,4
1,204	17,7	9,0
1,2045	18,0	10,8
1,205	18,8	13,4
1,2055	19,3	16,7
1,206	18,9	20,2
1,2065	17,6	23,8
1,207	16,1	27,4
1,2075	14,7	30,4
1,208	13,4	32,3
1,2085	12,3	32,4
1,209	11,1	30,7
1,2095	10,0	27,3
1,21	8,8	22,1
1,2105	7,7	15,9
1,211	6,6	9,4
1,2115	5,9	3,4
1,212	5,7	-1,6
1,2125	6,1	-5,2
1,213	6,9	-7,4
1,2135	7,8	-8,8
1,214	8,7	-10,3
1,2145	9,8	-12,1
1,215	11,2	-14,2
1,2155	12,8	-16,0
1,216	14,3	-16,9
1,2165	15,6	-16,5
1,217	16,4	-14,6
1,2175	16,6	-11,4
1,218	16,3	-7,4
1,2185	15,9	-3,0
1,219	14,9	1,1
1,2195	13,2	4,3
1,22	11,0	7,0
1,2205	9,8	9,4
1,221	10,7	11,4
1,2215	13,0	13,1
1,222	14,9	14,4
1,2225	15,1	15,3
1,223	13,6	15,6
1,2235	11,8	15,4
1,224	10,5	14,8
1,2245	10,1	13,8
1,225	10,4	12,4
1,2255	11,0	10,8
1,226	11,6	8,8
1,2265	11,9	6,2
1,227	12,2	3,4
1,2275	12,7	1,3
1,228	14,2	0,2
1,2285	16,6	-0,5
1,229	19,8	-0,9
1,2295	23,0	-0,9
1,23	25,9	-0,7
1,2305	27,8	-0,8
1,231	28,3	-2,2
1,2315	27,0	-4,4
1,232	24,4	-6,7
1,2325	21,8	-8,0
1,233	19,9	-7,6
1,2335	19,2	-5,9
1,234	18,9	-3,4
1,2345	18,5	-0,2
1,235	17,6	3,1
1,2355	15,9	5,8
1,236	12,5	7,2
1,2365	6,6	8,0
1,237	-1,5	9,5
1,2375	-10,2	11,9
1,238	-17,7	14,6
1,2385	-22,4	17,0
1,239	-23,7	19,1
1,2395	-21,8	21,2
1,24	-17,6	23,1
1,2405	-12,6	24,6
1,241	-7,9	25,1
1,2415	-4,2	24,0
1,242	-1,5	20,7
1,2425	0,6	15,1
1,243	2,6	7,4
1,2435	4,8	-0,6
1,244	7,7	-6,5
1,2445	11,5	-8,6
1,245	16,5	-7,5
1,2455	22,2	-4,9
1,246	27,1	-2,7
1,2465	30,1	-1,8
1,247	30,8	-2,9
1,2475	29,4	-5,9
1,248	26,3	-9,8
1,2485	22,0	-13,5
1,249	17,6	-16,1
1,2495	14,0	-17,2
1,25	11,7	-16,9
1,2505	10,6	-15,3
1,251	10,5	-12,4
1,2515	11,3	-8,3
1,252	12,6	-3,7
1,2525	13,7	0,3
1,253	14,0	3,3
1,2535	13,9	6,0
1,254	13,6	8,7
1,2545	13,1	11,4
1,255	12,1	13,8
1,2555	10,6	16,2
1,256	8,9	18,8
1,2565	7,7	21,7
1,257	7,1	24,3
1,2575	6,7	25,7
1,258	5,9	25,3
1,2585	4,7	23,3
1,259	3,3	20,3
1,2595	1,5	16,8
1,26	-1,0	13,0
1,2605	-3,5	9,7
1,261	-5,3	7,4
1,2615	-6,3	6,3
1,262	-7,1	5,5
1,2625	-8,4	4,4
1,263	-9,9	2,5
1,2635	-10,9	0,0
1,264	-11,2	-3,1
1,2645	-10,8	-6,4
1,265	-10,2	-9,5
1,2655	-9,7	-11,8
1,266	-8,9	-12,7
1,2665	-7,8	-11,8
1,267	-6,2	-9,5
1,2675	-4,1	-6,0
1,268	-0,8	-1,4
1,2685	3,3	3,6
1,269	6,8	7,9
1,2695	8,6	10,7
1,27	8,7	12,4
1,2705	7,7	14,0
1,271	6,4	15,6
1,2715	5,2	17,2
1,272	5,2	19,0
1,2725	6,9	21,1
1,273	10,2	23,7
1,2735	14,2	26,2
1,274	17,9	27,9
1,2745	20,8	28,1
1,275	23,1	26,9
1,2755	25,3	24,8
1,276	27,0	21,8
1,2765	27,6	18,1
1,277	27,3	14,4
1,2775	26,8	11,3
1,278	26,7	9,1
1,2785	26,6	6,9
1,279	25,3	4,0
1,2795	22,6	0,4
1,28	18,3	-3,7
1,2805	12,9	-8,2
1,281	6,9	-12,7
1,2815	1,3	-16,3
1,282	-2,8	-18,1
1,2825	-4,8	-17,5
1,283	-4,6	-14,7
1,2835	-2,8	-10,4
1,284	-0,0	-5,2
1,2845	3,4	0,6
1,285	7,2	6,8
1,2855	10,7	12,3
1,286	13,2	16,0
1,2865	14,3	17,3
1,287	14,5	16,8
1,2875	13,5	15,1
1,288	11,6	13,0
1,2885	9,4	11,2
1,289	8,2	10,8
1,2895	8,8	12,7
1,29	10,9	16,2
1,2905	13,9	19,9
1,291	16,8	22,2
1,2915	18,7	22,4
1,292	18,6	20,5
1,2925	16,6	17,1
1,293	12,9	12,7
1,2935	8,2	8,2
1,294	3,6	4,7
1,2945	0,3	3,1
1,295	-1,3	3,3
1,2955	-1,3	4,1
1,296	-0,3	4,6
1,2965	1,2	4,5
1,297	2,4	3,4
1,2975	2,4	1,1
1,298	1,1	-2,1
1,2985	-1,1	-5,7
1,299	-3,4	-9,3
1,2995	-5,5	-12,5
1,3	-7,2	-15,0
1,3005	-7,7	-15,9
1,301	-6,5	-14,5
1,3015	-3,2	-10,5
1,302	1,5	-4,9
1,3025	6,0	0,4
1,303	9,4	4,4
1,3035	11,5	7,5
1,304	12,7	10,3
1,3045	13,5	13,1
1,305	14,1	16,2
1,3055	15,0	19,7
1,306	16,5	23,4
1,3065	18,4	27,3
1,307	20,4	31,0
1,3075	22,1	34,1
1,308	23,2	35,8
1,3085	23,7	35,5
1,309	23,1	33,3
1,3095	20,9	29,1
1,31	16,9	23,6
1,3105	11,7	17,8
1,311	6,3	12,7
1,3115	1,6	8,1
1,312	-2,2	3,3
1,3125	-5,5	-1,9
1,313	-8,2	-7,0
1,3135	-10,3	-11,1
1,314	-11,8	-14,0
1,3145	-12,9	-16,2
1,315	-13,8	-17,8
1,3155	-14,7	-18,6
1,316	-15,3	-18,4
1,3165	-15,1	-17,0
1,317	-13,5	-14,3
1,3175	-9,7	-10,5
1,318	-4,2	-6,0
1,3185	1,5	-1,2
1,319	5,5	2,9
1,3195	7,0	5,7
1,32	6,6	7,5
1,3205	5,2	9,1
1,321	2,9	11,1
1,3215	-0,3	13,5
1,322	-3,8	16,4
1,3225	-6,7	19,4
1,323	-8,7	21,7
1,3235	-10,3	22,8
1,324	-12,3	22,7
1,3245	-14,9	21,3
1,325	-18,1	19,1
1,3255	-21,4	16,4
1,326	-24,4	13,5
1,3265	-26,5	10,6
1,327	-27,3	7,8
1,3275	-26,5	5,8
1,328	-24,4	4,9
1,3285	-21,6	4,4
1,329	-19,0	3,6
1,3295	-16,5	2,3
1,33	-13,8	0,6
1,3305	-11,0	-1,7
1,331	-8,4	-4,6
1,3315	-5,6	-8,2
1,332	-2,0	-11,5
1,3325	2,3	-13,8
1,333	5,8	-14,5
1,3335	7,9	-13,7
1,334	8,7	-11,7
1,3345	9,1	-8,3
1,335	9,8	-3,8
1,3355	10,8	1,0
1,336	11,8	4,6
1,3365	13,0	6,8
1,337	14,3	8,1
1,3375	15,9	9,3
1,338	16,9	10,7
1,3385	17,1	12,7
1,339	16,8	15,4
1,3395	16,6	19,1
1,34	17,0	23,5
1,3405	17,8	27,6
1,341	18,4	30,6
1,3415	18,1	31,8
1,342	16,9	31,3
1,3425	15,1	29,7
1,343	12,5	27,1
1,3435	9,1	23,9
1,344	5,4	20,8
1,3445	2,7	18,2
1,345	0,9	15,7
1,3455	-0,6	12,5
1,346	-2,3	8,4
1,3465	-4,4	3,2
1,347	-6,8	-2,8
1,3475	-9,4	-9,0
1,348	-11,9	-14,0
1,3485	-13,8	-16,8
1,349	-14,7	-17,1
1,3495	-14,5	-15,5
1,35	-13,6	-13,0
1,3505	-12,0	-10,3
1,351	-9,4	-7,1
1,3515	-5,4	-3,4
1,352	-0,6	0,8
1,3525	3,3	4,5
1,353	5,0	7,1
1,3535	4,4	8,6
1,354	2,7	9,8
1,3545	0,8	11,0
1,355	-0,5	12,6
1,3555	-0,9	14,9
1,356	-0,5	17,9
1,3565	0,7	21,4
1,357	2,1	24,8
1,3575	3,6	27,8
1,358	4,7	29,8
1,3585	5,0	30,3
1,359	4,3	29,1
1,3595	2,3	25,8
1,36	-0,4	21,1
1,3605	-2,6	16,3
1,361	-3,3	12,5
1,3615	-2,6	9,8
1,362	-1,4	7,1
1,3625	-0,5	4,1
1,363	-0,1	1,2
1,3635	-0,5	-0,9
1,364	-1,9	-2,4
1,3645	-4,4	-3,7
1,365	-7,8	-5,3
1,3655	-11,3	-6,8
1,366	-14,1	-7,4
1,3665	-15,7	-6,7
1,367	-15,8	-4,7
1,3675	-14,6	-1,7
1,368	-12,2	2,4
1,3685	-8,9	7,3
1,369	-6,4	11,5
1,3695	-5,5	14,1
1,37	-6,3	15,1
1,3705	-7,3	15,5
1,371	-7,6	16,0
1,3715	-6,6	16,9
1,372	-4,4	18,1
1,3725	-1,5	19,5
1,373	1,2	21,0
1,3735	3,4	22,0
1,374	4,7	22,1
1,3745	4,6	20,8
1,375	3,2	18,3
1,3755	1,1	14,8
1,376	-1,2	10,9
1,3765	-3,2	6,9
1,377	-4,3	3,4
1,3775	-3,8	1,0
1,378	-1,3	-0,1
1,3785	2,5	-0,5
1,379	6,1	-1,2
1,3795	8,7	-2,7
1,38	9,8	-4,8
1,3805	9,3	-7,5
1,381	7,3	-10,5
1,3815	4,3	-13,3
1,382	0,7	-15,6
1,3825	-2,6	-16,6
1,383	-5,2	-16,2
1,3835	-6,7	-14,3
1,384	-7,2	-11,2
1,3845	-6,7	-6,8
1,385	-5,6	-1,2
1,3855	-4,0	4,7
1,386	-2,7	9,7
1,3865	-1,6	13,4
1,387	-0,6	16,0
1,3875	0,5	18,1
1,388	1,6	19,9
1,3885	2,7	21,6
1,389	4,2	23,7
1,3895	6,3	25,6
1,39	8,9	26,8
1,3905	11,3	26,7
1,391	13,0	25,6
1,3915	14,1	24,1
1,392	15,0	22,6
1,3925	15,8	21,1
1,393	16,2	19,3
1,3935	16,1	17,1
1,394	15,7	15,3
1,3945	15,2	14,2
1,395	14,5	13,5
1,3955	13,1	12,5
1,396	11,2	11,1
1,3965	9,0	10,0
1,397	6,6	9,1
1,3975	3,5	7,6
1,398	-0,7	4,8
1,3985	-5,7	1,4
1,399	-10,5	-1,6
1,3995	-14,6	-3,1
1,4	-17,6	-3,0
1,4005	-19,5	-2,1
1,401	-20,4	-1,4
1,4015	-20,5	-1,0
1,402	-20,3	-1,0
1,4025	-20,3	-1,4
1,403	-20,8	-1,6
1,4035	-21,5	-0,7
1,404	-21,8	1,5
1,4045	-21,6	4,2
1,405	-20,7	6,7
1,4055	-18,4	9,3
1,406	-14,6	12,5
1,4065	-9,7	16,2
1,407	-5,1	19,6
1,4075	-1,7	21,7
1,408	0,1	21,8
1,4085	1,1	20,4
1,409	2,8	17,9
1,4095	5,3	14,7
1,41	7,3	10,8
1,4105	7,4	7,1
1,411	5,7	4,3
1,4115	3,7	2,7
1,412	2,7	1,5
1,4125	2,8	0,0
1,413	3,7	-1,9
1,4135	5,0	-4,4
1,414	6,1	-7,5
1,4145	6,2	-10,8
1,415	4,7	-13,7
1,4155	2,1	-15,6
1,416	-0,7	-16,0
1,4165	-2,6	-15,1
1,417	-3,0	-12,8
1,4175	-1,8	-9,6
1,418	0,5	-5,3
1,4185	3,4	-0,5
1,419	6,0	3,9
1,4195	7,4	7,0
1,42	7,7	8,8
1,4205	7,5	9,9
1,421	7,3	11,0
1,4215	7,6	12,2
1,422	8,1	13,8
1,4225	9,0	15,9
1,423	10,2	18,3
1,4235	11,6	20,7
1,424	12,9	22,2
1,4245	13,8	22,3
1,425	13,8	20,8
1,4255	13,2	18,4
1,426	11,6	15,6
1,4265	8,9	12,5
1,427	5,4	9,5
1,4275	1,9	7,2
1,428	-0,9	5,8
1,4285	-3,1	5,1
1,429	-5,4	4,3
1,4295	-7,6	3,5
1,43	-9,9	2,5
1,4305	-12,8	0,9
1,431	-17,2	-1,7
1,4315	-23,4	-5,0
1,432	-30,5	-8,4
1,4325	-37,1	-11,2
1,433	-41,6	-12,5
1,4335	-42,5	-11,7
1,434	-38,9	-8,7
1,4345	-31,1	-4,0
1,435	-20,4	1,3
1,4355	-9,4	6,1
1,436	-0,5	9,4
1,4365	5,4	11,6
1,437	9,2	13,4
1,4375	11,8	15,6
1,438	14,1	17,8
1,4385	16,7	19,7
1,439	19,7	21,3
1,4395	22,9	22,5
1,44	25,8	23,0
1,4405	28,3	22,2
1,441	30,3	19,8
1,4415	31,5	16,1
1,442	31,4	12,0
1,4425	29,8	8,3
1,443	27,2	5,4
1,4435	24,3	3,3
1,444	21,5	2,1
1,4445	19,6	2,2
1,445	18,6	3,2
1,4455	18,3	4,3
1,446	18,1	5,0
1,4465	17,8	5,1
1,447	17,3	4,4
1,4475	16,7	2,9
1,448	15,9	0,6
1,4485	15,1	-2,4
1,449	14,0	-5,4
1,4495	12,8	-7,8
1,45	11,5	-9,2
1,4505	10,4	-9,3
1,451	9,5	-8,1
1,4515	9,0	-6,3
1,452	8,5	-4,5
1,4525	7,7	-2,8
1,453	6,5	-1,2
1,4535	5,2	1,0
1,454	4,4	3,9
1,4545	4,3	7,2
1,455	4,9	10,5
1,4555	5,9	14,0
1,456	7,1	17,8
1,4565	8,2	21,6
1,457	8,9	24,8
1,4575	8,9	26,4
1,458	8,1	26,1
1,4585	6,4	24,1
1,459	4,1	20,8
1,4595	1,3	16,5
1,46	-1,7	11,5
1,4605	-4,4	6,8
1,461	-6,0	3,4
1,4615	-6,0	1,3
1,462	-4,8	-0,5
1,4625	-2,9	-2,8
1,463	-0,7	-5,6
1,4635	1,5	-8,6
1,464	3,4	-11,9
1,4645	5,3	-15,1
1,465	7,2	-17,5
1,4655	8,7	-18,9
1,466	9,9	-18,8
1,4665	10,8	-17,3
1,467	11,4	-14,9
1,4675	11,6	-12,1
1,468	11,3	-8,8
1,4685	10,6	-5,4
1,469	9,4	-2,6
1,4695	7,5	-0,8
1,47	5,0	0,4
1,4705	2,7	2,0
1,471	1,1	4,2
1,4715	0,2	6,7
1,472	-0,1	9,4
1,4725	0,3	12,3
1,473	1,3	15,7
1,4735	2,8	19,1
1,474	4,6	22,3
1,4745	6,3	24,9
1,475	7,5	26,3
1,4755	8,0	26,4
1,476	7,4	24,7
1,4765	5,4	21,1
1,477	2,2	16,6
1,4775	-0,6	13,1
1,478	-1,7	11,4
1,4785	-1,2	11,3
1,479	-0,4	10,7
1,4795	-0,0	8,2
1,48	-0,2	3,6
1,4805	-0,8	-2,4
1,481	-1,7	-8,4
1,4815	-2,8	-13,3
1,482	-4,7	-16,9
1,4825	-7,2	-19,1
1,483	-10,1	-20,0
1,4835	-12,3	-19,4
1,484	-12,8	-17,0
1,4845	-10,7	-12,5
1,485	-5,8	-6,0
1,4855	0,6	1,3
1,486	6,6	7,6
1,4865	10,8	12,1
1,487	12,4	14,8
1,4875	11,8	16,0
1,488	9,5	15,9
1,4885	6,7	15,6
1,489	5,1	16,4
1,4895	6,0	19,2
1,49	10,3	23,3
1,4905	17,1	27,3
1,491	23,3	29,3
1,4915	25,7	27,6
1,492	23,1	22,1
1,4925	16,9	14,3
1,493	9,4	6,0
1,4935	3,0	-1,1
1,494	-0,9	-5,8
1,4945	-1,6	-7,8
1,495	0,6	-7,8
1,4955	4,1	-7,0
1,496	7,5	-6,8
1,4965	10,0	-7,6
1,497	10,8	-9,2
1,4975	9,8	-11,5
1,498	7,1	-14,0
1,4985	3,7	-16,1
1,499	0,6	-17,2
1,4995	-1,6	-17,0
1,5	-2,4	-15,5
1,5005	-2,0	-13,0
1,501	-0,7	-9,8
1,5015	0,9	-6,1
1,502	2,0	-2,3
1,5025	1,9	1,0
1,503	0,3	3,3
1,5035	-1,9	5,4
1,504	-3,9	7,5
1,5045	-5,4	9,6
1,505	-6,6	11,4
1,5055	-7,5	13,4
1,506	-7,3	15,8
1,5065	-5,5	18,5
1,507	-2,0	21,3
1,5075	2,4	23,7
1,508	6,8	24,8
1,5085	9,8	24,7
1,509	11,0	23,3
1,5095	10,6	20,9
1,51	9,2	17,3
1,5105	7,7	13,2
1,511	6,9	9,1
1,5115	6,9	5,1
1,512	7,2	0,9
1,5125	7,6	-3,4
1,513	8,3	-7,2
1,5135	9,5	-9,5
1,514	10,8	-10,8
1,5145	11,7	-11,9
1,515	11,8	-13,2
1,5155	11,5	-14,6
1,516	11,3	-15,4
1,5165	11,8	-15,0
1,517	12,6	-13,0
1,5175	13,0	-9,8
1,518	12,8	-5,6
1,5185	11,9	-0,8
1,519	10,6	3,7
1,5195	8,8	7,3
1,52	6,8	10,1
1,5205	4,9	12,8
1,521	3,4	15,4
1,5215	2,1	17,6
1,522	1,2	19,5
1,5225	1,0	21,4
1,523	1,9	23,4
1,5235	3,8	25,5
1,524	6,3	27,4
1,5245	8,9	28,7
1,525	11,2	28,8
1,5255	12,9	27,3
1,526	13,6	23,8
1,5265	12,9	18,3
1,527	11,2	11,8
1,5275	10,0	5,9
1,528	10,2	2,0
1,5285	11,1	-0,4
1,529	11,9	-2,0
1,5295	12,1	-3,3
1,53	11,5	-4,3
1,5305	10,1	-5,2
1,531	8,0	-6,3
1,5315	5,5	-7,7
1,532	2,7	-8,8
1,5325	-0,8	-8,9
1,533	-5,0	-7,8
1,5335	-9,2	-5,4
1,534	-12,3	-2,2
1,5345	-13,5	2,0
1,535	-12,8	7,5
1,5355	-10,6	13,8
1,536	-7,9	19,3
1,5365	-5,8	22,8
1,537	-4,7	24,1
1,5375	-4,4	23,6
1,538	-4,0	22,2
1,5385	-2,5	20,7
1,539	0,9	20,0
1,5395	5,7	20,5
1,54	11,3	21,9
1,5405	17,2	23,4
1,541	23,3	24,0
1,5415	28,4	23,1
1,542	30,9	20,8
1,5425	29,6	17,7
1,543	25,2	14,3
1,5435	19,3	10,7
1,544	13,5	7,6
1,5445	8,5	5,8
1,545	4,8	5,1
1,5455	2,9	4,8
1,546	2,9	4,6
1,5465	4,5	3,8
1,547	6,1	2,0
1,5475	6,4	-1,1
1,548	5,0	-5,0
1,5485	2,7	-8,5
1,549	0,3	-10,6
1,5495	-1,3	-10,9
1,55	-1,6	-9,5
1,5505	-0,5	-6,9
1,551	2,2	-3,4
1,5515	5,9	0,6
1,552	9,9	4,6
1,5525	13,3	8,0
1,553	16,1	10,4
1,5535	18,4	12,7
1,554	20,5	15,3
1,5545	21,9	18,2
1,555	22,6	21,2
1,5555	22,9	24,6
1,556	24,0	28,7
1,5565	26,1	33,1
1,557	28,8	36,9
1,5575	31,1	38,8
1,558	32,1	38,4
1,5585	31,4	35,7
1,559	29,4	31,2
1,5595	26,3	25,0
1,56	22,1	16,9
1,5605	17,0	7,8
1,561	12,3	-0,3
1,5615	9,6	-5,3
1,562	9,5	-7,2
1,5625	11,5	-6,7
1,563	14,5	-5,0
1,5635	17,3	-3,4
1,564	18,9	-2,9
1,5645	19,2	-4,0
1,565	18,1	-6,6
1,5655	16,1	-9,6
1,566	13,8	-12,0
1,5665	11,8	-12,8
1,567	10,5	-11,6
1,5675	9,9	-8,7
1,568	10,2	-5,0
1,5685	10,8	-1,2
1,569	11,4	2,1
1,5695	11,3	5,0
1,57	10,8	8,1
1,5705	10,4	11,5
1,571	10,4	15,3
1,5715	10,4	18,5
1,572	10,4	21,2
1,5725	10,5	23,4
1,573	10,7	25,2
1,5735	11,0	26,4
1,574	11,8	26,4
1,5745	12,9	24,9
1,575	13,6	22,3
1,5755	13,2	19,6
1,576	11,4	17,2
1,5765	8,7	14,9
1,577	5,6	12,5
1,5775	3,0	10,3
1,578	1,3	9,0
1,5785	0,9	8,3
1,579	1,3	7,8
1,5795	2,1	7,0
1,58	2,8	6,1
1,5805	2,9	4,7
1,581	1,8	2,8
1,5815	-0,3	0,3
1,582	-2,6	-2,2
1,5825	-4,1	-4,1
1,583	-4,2	-4,8
1,5835	-2,6	-4,4
1,584	0,9	-3,3
1,5845	6,3	-1,3
1,585	12,6	1,7
1,5855	17,3	5,2
1,586	18,6	8,1
1,5865	16,8	9,8
1,587	13,8	10,7
1,5875	11,7	11,3
1,588	11,5	12,5
1,5885	13,3	14,7
1,589	16,9	18,1
1,5895	21,6	22,6
1,59	26,6	27,1
1,5905	30,8	30,8
1,591	33,3	32,8
1,5915	32,9	32,9
1,592	29,6	31,1
1,5925	24,1	27,8
1,593	17,3	23,2
1,5935	9,9	18,1
1,594	2,9	13,5
1,5945	-2,5	10,4
1,595	-5,5	8,9
1,5955	-6,2	8,5
1,596	-5,4	8,6
1,5965	-3,8	8,6
1,597	-1,9	8,1
1,5975	-0,4	6,3
1,598	0,6	3,5
1,5985	0,8	-0,1
1,599	0,5	-3,3
1,5995	0,7	-5,5
1,6	2,2	-5,8
1,6005	5,5	-4,5
1,601	10,1	-2,3
1,6015	14,9	0,4
1,602	19,1	2,9
1,6025	21,8	4,8
1,603	23,0	6,1
1,6035	23,2	7,8
1,604	22,9	10,3
1,6045	22,2	13,6
1,605	21,2	17,5
1,6055	20,0	21,8
1,606	18,7	26,2
1,6065	17,6	30,4
1,607	16,8	33,8
1,6075	16,8	35,7
1,608	17,2	35,6
1,6085	17,2	34,0
1,609	16,7	31,6
1,6095	15,6	28,9
1,61	13,9	25,9
1,6105	12,0	22,5
1,611	10,8	19,4
1,6115	10,8	17,3
1,612	12,1	15,6
1,6125	14,1	13,6
1,613	15,9	10,6
1,6135	16,9	6,3
1,614	17,1	1,3
1,6145	17,0	-3,8
1,615	16,6	-7,8
1,6155	15,6	-10,4
1,616	14,3	-11,6
1,6165	13,3	-11,6
1,617	12,7	-10,4
1,6175	11,8	-8,3
1,618	10,3	-4,8
1,6185	8,7	0,0
1,619	7,3	5,1
1,6195	6,2	9,3
1,62	5,2	12,5
1,6205	4,3	15,3
1,621	3,7	18,3
1,6215	3,1	21,4
1,622	2,7	24,6
1,6225	2,8	27,9
1,623	3,3	30,8
1,6235	4,7	33,0
1,624	6,8	34,1
1,6245	9,3	33,8
1,625	12,3	32,2
1,6255	16,0	29,8
1,626	20,9	27,2
1,6265	26,1	24,0
1,627	30,4	20,4
1,6275	32,6	17,2
1,628	32,7	15,2
1,6285	31,2	14,4
1,629	29,1	13,9
1,6295	27,2	13,2
1,63	25,7	11,7
1,6305	23,6	8,7
1,631	20,2	4,4
1,6315	15,1	-0,4
1,632	8,7	-4,9
1,6325	1,8	-8,5
1,633	-4,0	-10,6
1,6335	-7,7	-10,6
1,634	-8,5	-8,1
1,6345	-7,0	-3,2
1,635	-4,0	3,3
1,6355	-0,8	9,8
1,636	1,7	14,8
1,6365	3,2	17,9
1,637	4,6	20,0
1,6375	6,6	21,9
1,638	9,5	23,8
1,6385	13,5	25,7
1,639	18,4	27,8
1,6395	24,1	30,1
1,64	29,4	31,8
1,6405	33,2	32,6
1,641	35,0	32,1
1,6415	34,9	30,7
1,642	33,5	28,7
1,6425	31,1	25,9
1,643	27,5	22,4
1,6435	23,5	18,3
1,644	19,9	14,3
1,6445	17,3	10,8
1,645	15,5	7,9
1,6455	14,2	5,6
1,646	13,4	4,2
1,6465	13,2	3,8
1,647	13,4	3,6
1,6475	13,6	2,6
1,648	13,1	0,3
1,6485	11,9	-2,7
1,649	10,4	-5,4
1,6495	9,2	-6,6
1,65	8,8	-5,8
1,6505	9,2	-3,3
1,651	9,9	0,3
1,6515	10,6	4,5
1,652	10,8	8,3
1,6525	10,2	11,0
1,653	8,8	12,6
1,6535	7,4	14,1
1,654	6,4	17,0
1,6545	6,1	21,4
1,655	6,1	26,7
1,6555	6,5	32,1
1,656	7,9	37,5
1,6565	10,2	42,5
1,657	13,2	46,5
1,6575	16,4	48,9
1,658	19,3	49,3
1,6585	21,4	47,5
1,659	22,4	43,8
1,6595	22,2	37,9
1,66	20,9	30,3
1,6605	19,7	22,8
1,661	20,1	16,9
1,6615	22,6	13,3
1,662	25,9	10,7
1,6625	27,8	8,1
1,663	27,2	5,5
1,6635	24,7	3,3
1,664	21,4	1,6
1,6645	18,2	0,1
1,665	15,1	-1,4
1,6655	12,1	-3,0
1,666	9,2	-4,5
1,6665	6,5	-6,0
1,667	4,6	-6,8
1,6675	3,7	-6,3
1,668	3,9	-4,0
1,6685	4,8	-0,1
1,669	5,7	4,4
1,6695	6,1	8,2
1,67	6,3	10,9
1,6705	7,2	13,3
1,671	8,7	15,8
1,6715	10,3	18,7
1,672	11,7	21,8
1,6725	13,1	25,4
1,673	14,7	29,3
1,6735	16,6	33,1
1,674	18,3	36,1
1,6745	19,3	37,4
1,675	19,1	36,7
1,6755	17,6	34,4
1,676	15,6	31,1
1,6765	14,0	27,6
1,677	13,5	24,2
1,6775	14,0	21,3
1,678	14,6	18,2
1,6785	14,2	14,5
1,679	12,8	10,1
1,6795	11,2	5,9
1,68	10,5	2,7
1,6805	11,0	0,2
1,681	12,1	-2,2
1,6815	13,1	-4,7
1,682	13,3	-6,8
1,6825	12,7	-7,9
1,683	11,8	-7,5
1,6835	11,7	-5,7
1,684	12,6	-2,8
1,6845	14,7	0,6
1,685	17,4	4,4
1,6855	19,7	8,0
1,686	20,4	10,7
1,6865	18,9	12,4
1,687	15,9	13,8
1,6875	12,5	15,6
1,688	9,8	17,8
1,6885	7,8	19,8
1,689	6,5	22,2
1,6895	6,2	25,0
1,69	6,9	28,3
1,6905	8,7	31,3
1,691	11,2	33,0
1,6915	13,7	32,9
1,692	15,5	31,2
1,6925	16,3	28,6
1,693	16,0	25,7
1,6935	15,4	22,7
1,694	15,0	20,0
1,6945	15,2	18,0
1,695	15,9	16,9
1,6955	16,3	15,8
1,696	15,9	14,2
1,6965	15,3	12,1
1,697	14,6	9,7
1,6975	13,7	6,8
1,698	11,9	3,7
1,6985	9,3	0,4
1,699	6,3	-2,5
1,6995	3,6	-4,9
1,7	1,7	-6,3
1,7005	0,7	-6,7
1,701	0,4	-5,5
1,7015	0,9	-2,7
1,702	2,2	1,4
1,7025	3,5	6,0
1,703	4,1	10,3
1,7035	3,6	14,1
1,704	2,5	17,5
1,7045	0,9	20,5
1,705	-0,8	22,8
1,7055	-2,3	24,8
1,706	-3,2	26,8
1,7065	-3,2	28,8
1,707	-2,6	30,3
1,7075	-2,1	30,6
1,708	-2,2	29,4
1,7085	-3,0	26,9
1,709	-4,4	24,0
1,7095	-6,2	20,9
1,71	-8,3	17,8
1,7105	-10,6	14,8
1,711	-13,0	12,5
1,7115	-14,9	10,9
1,712	-16,3	9,5
1,7125	-16,8	7,8
1,713	-16,9	5,8
1,7135	-17,2	3,8
1,714	-18,7	1,4
1,7145	-21,6	-1,3
1,715	-25,1	-3,9
1,7155	-28,2	-5,8
1,716	-29,9	-6,8
1,7165	-30,3	-6,3
1,717	-29,6	-4,4
1,7175	-28,5	-1,4
1,718	-27,0	2,5
1,7185	-25,1	6,9
1,719	-23,3	10,9
1,7195	-22,0	13,8
1,72	-21,5	15,9
1,7205	-20,9	17,7
1,721	-20,3	19,3
1,7215	-19,3	19,9
1,722	-17,0	19,7
1,7225	-12,6	19,7
1,723	-6,3	20,9
1,7235	-0,0	23,0
1,724	4,6	24,9
1,7245	6,8	25,8
1,725	7,0	25,2
1,7255	6,5	23,5
1,726	6,4	21,4
1,7265	7,1	18,7
1,727	8,4	15,5
1,7275	10,6	12,1
1,728	14,0	9,0
1,7285	17,2	6,3
1,729	18,3	3,9
1,7295	16,7	1,5
1,73	13,1	-0,8
1,7305	8,5	-3,2
1,731	3,7	-5,7
1,7315	-0,8	-8,0
1,732	-4,4	-9,8
1,7325	-6,8	-10,4
1,733	-7,6	-9,3
1,7335	-6,9	-6,4
1,734	-5,2	-2,2
1,7345	-2,5	2,8
1,735	0,8	8,3
1,7355	4,6	13,4
1,736	8,5	17,2
1,7365	12,2	19,2
1,737	15,3	19,6
1,7375	17,3	19,0
1,738	17,9	17,9
1,7385	17,3	16,8
1,739	16,0	16,3
1,7395	14,7	16,7
1,74	13,7	17,4
1,7405	12,9	17,6
1,741	12,3	16,8
1,7415	11,8	15,2
1,742	11,2	13,4
1,7425	10,5	11,9
1,743	9,4	10,6
1,7435	7,7	8,9
1,744	5,9	7,3
1,7445	4,4	6,7
1,745	3,6	7,7
1,7455	3,3	9,5
1,746	3,1	11,1
1,7465	2,7	11,6
1,747	2,0	10,5
1,7475	0,7	7,6
1,748	-1,3	3,5
1,7485	-3,5	-0,8
1,749	-5,8	-4,4
1,7495	-8,2	-6,5
1,75	-10,6	-6,9
1,7505	-12,6	-6,5
1,751	-14,1	-6,5
1,7515	-14,8	-6,9
1,752	-14,6	-7,0
1,7525	-13,8	-5,7
1,753	-12,8	-2,6
1,7535	-11,4	1,8
1,754	-9,6	6,6
1,7545	-7,1	10,5
1,755	-3,8	12,3
1,7555	-0,1	12,3
1,756	3,3	11,5
1,7565	5,7	11,1
1,757	6,8	11,5
1,7575	7,2	12,6
1,758	7,9	13,7
1,7585	9,2	14,4
1,759	10,7	14,7
1,7595	11,3	13,9
1,76	10,4	11,6
1,7605	8,9	8,3
1,761	7,6	5,3
1,7615	7,2	3,7
1,762	7,7	3,3
1,7625	8,7	3,5
1,763	9,8	3,8
1,7635	10,7	3,2
1,764	10,3	0,6
1,7645	7,8	-4,4
1,765	3,0	-11,4
1,7655	-2,8	-18,6
1,766	-8,1	-23,9
1,7665	-11,5	-26,5
1,767	-12,7	-26,3
1,7675	-11,9	-24,2
1,768	-9,5	-20,4
1,7685	-6,3	-15,5
1,769	-3,3	-10,2
1,7695	-1,7	-5,7
1,77	-1,4	-2,0
1,7705	-2,0	1,1
1,771	-2,5	3,9
1,7715	-2,6	6,5
1,772	-2,2	9,0
1,7725	-0,9	11,8
1,773	1,1	15,1
1,7735	3,6	18,6
1,774	5,8	21,3
1,7745	7,0	22,4
1,775	7,0	21,4
1,7755	5,3	18,8
1,776	1,7	14,8
1,7765	-3,6	9,6
1,777	-9,7	3,7
1,7775	-15,1	-1,6
1,778	-18,7	-5,1
1,7785	-20,4	-7,0
1,779	-20,7	-8,3
1,7795	-20,3	-9,5
1,78	-19,2	-10,7
1,7805	-17,7	-12,0
1,781	-15,9	-13,6
1,7815	-14,1	-15,4
1,782	-12,5	-16,9
1,7825	-11,2	-17,6
1,783	-10,3	-17,3
1,7835	-9,0	-15,8
1,784	-6,8	-13,5
1,7845	-3,3	-10,3
1,785	1,3	-6,5
1,7855	6,3	-2,9
1,786	10,3	-0,3
1,7865	12,9	1,3
1,787	14,3	3,0
1,7875	14,6	5,6
1,788	14,0	8,8
1,7885	12,5	12,1
1,789	10,4	14,7
1,7895	8,0	15,8
1,79	5,6	15,5
1,7905	3,6	14,3
1,791	2,3	12,9
1,7915	2,2	11,9
1,792	3,1	10,9
1,7925	4,5	9,5
1,793	5,8	6,9
1,7935	6,2	2,8
1,794	5,8	-2,2
1,7945	5,3	-6,6
1,795	4,9	-9,8
1,7955	4,3	-11,8
1,796	3,5	-13,0
1,7965	2,4	-13,8
1,797	1,1	-14,8
1,7975	-0,4	-16,5
1,798	-2,2	-18,8
1,7985	-4,1	-21,1
1,799	-5,8	-22,5
1,7995	-7,2	-22,8
1,8	-8,1	-22,0
1,8005	-8,3	-20,3
1,801	-7,7	-17,8
1,8015	-6,7	-14,3
1,802	-6,0	-10,0
1,8025	-6,4	-5,8
1,803	-7,7	-2,3
1,8035	-9,5	0,7
1,804	-11,4	3,2
1,8045	-13,4	5,4
1,805	-15,7	7,1
1,8055	-17,2	8,7
1,806	-17,2	10,6
1,8065	-15,7	13,1
1,807	-13,1	15,5
1,8075	-10,5	17,2
1,808	-8,3	17,6
1,8085	-6,7	16,7
1,809	-6,2	14,4
1,8095	-7,4	10,9
1,81	-10,4	6,5
1,8105	-13,8	1,9
1,811	-16,4	-1,8
1,8115	-17,5	-4,3
1,812	-17,5	-6,0
1,8125	-17,0	-7,4
1,813	-16,9	-9,0
1,8135	-18,3	-11,0
1,814	-21,7	-13,9
1,8145	-26,4	-17,7
1,815	-31,4	-21,8
1,8155	-35,6	-25,0
1,816	-38,6	-26,5
1,8165	-39,9	-26,0
1,817	-38,8	-23,6
1,8175	-35,3	-19,7
1,818	-29,1	-14,6
1,8185	-21,3	-9,0
1,819	-13,8	-3,8
1,8195	-8,1	0,2
1,82	-4,5	3,1
1,8205	-1,4	5,8
1,821	2,8	8,7
1,8215	8,9	11,5
1,822	16,4	14,1
1,8225	24,0	16,1
1,823	30,0	17,1
1,8235	33,7	16,9
1,824	36,0	16,2
1,8245	37,8	15,6
1,825	39,1	15,7
1,8255	39,3	15,5
1,826	37,4	14,2
1,8265	33,2	10,8
1,827	27,3	5,9
1,8275	21,1	1,0
1,828	16,3	-2,7
1,8285	13,5	-4,5
1,829	12,1	-4,7
1,8295	11,5	-3,8
1,83	11,5	-2,5
1,8305	11,6	-1,9
1,831	11,3	-3,1
1,8315	10,2	-6,0
1,832	8,0	-9,8
1,8325	5,1	-13,6
1,833	1,5	-16,9
1,8335	-2,6	-19,9
1,834	-6,6	-22,0
1,8345	-9,5	-22,6
1,835	-10,7	-21,2
1,8355	-10,3	-18,6
1,836	-9,4	-15,9
1,8365	-9,0	-13,3
1,837	-9,1	-10,3
1,8375	-9,7	-6,7
1,838	-11,0	-3,3
1,8385	-13,0	-0,9
1,839	-15,3	0,7
1,8395	-17,2	2,4
1,84	-18,3	5,1
1,8405	-18,1	8,5
1,841	-16,8	11,8
1,8415	-14,9	13,8
1,842	-13,1	14,3
1,8425	-11,9	13,1
1,843	-12,2	10,4
1,8435	-14,0	6,4
1,844	-16,7	2,1
1,8445	-18,5	-1,3
1,845	-17,8	-3,6
1,8455	-14,3	-5,3
1,846	-9,7	-7,3
1,8465	-6,5	-9,7
1,847	-5,8	-12,4
1,8475	-7,4	-15,3
1,848	-10,1	-17,9
1,8485	-13,0	-20,0
1,849	-15,4	-20,9
1,8495	-17,1	-20,7
1,85	-17,8	-19,3
1,8505	-17,4	-16,7
1,851	-16,0	-13,3
1,8515	-13,8	-9,6
1,852	-11,3	-6,1
1,8525	-9,1	-3,8
1,853	-7,9	-3,6
1,8535	-7,6	-5,2
1,854	-7,2	-6,9
1,8545	-6,2	-7,2
1,855	-4,7	-5,4
1,8555	-3,3	-2,3
1,856	-2,2	1,4
1,8565	-1,3	4,8
1,857	-0,5	7,4
1,8575	0,2	9,0
1,858	0,7	9,3
1,8585	1,2	8,7
1,859	1,7	7,5
1,8595	2,2	6,0
1,86	2,1	3,7
1,8605	1,5	0,8
1,861	0,9	-2,1
1,8615	0,7	-4,3
1,862	0,6	-5,8
1,8625	0,3	-6,8
1,863	0,0	-7,6
1,8635	-0,3	-8,0
1,864	-0,5	-8,5
1,8645	-0,5	-9,3
1,865	-0,3	-10,6
1,8655	-0,0	-12,1
1,866	0,3	-13,3
1,8665	0,6	-13,5
1,867	0,5	-12,8
1,8675	0,2	-11,3
1,868	-0,4	-9,8
1,8685	-1,6	-8,7
1,869	-3,4	-8,5
1,8695	-5,8	-8,9
1,87	-7,9	-9,0
1,8705	-9,4	-8,0
1,871	-10,5	-5,7
1,8715	-11,4	-2,8
1,872	-12,1	0,2
1,8725	-11,8	3,1
1,873	-10,1	5,8
1,8735	-6,6	8,3
1,874	-2,2	10,1
1,8745	1,7	10,6
1,875	3,7	9,4
1,8755	3,7	7,0
1,876	2,4	3,6
1,8765	0,3	-0,5
1,877	-2,3	-4,7
1,8775	-4,5	-8,4
1,878	-5,8	-10,8
1,8785	-6,1	-12,4
1,879	-6,3	-13,7
1,8795	-7,1	-14,8
1,88	-8,2	-15,7
1,8805	-9,3	-16,6
1,881	-10,4	-17,7
1,8815	-11,4	-19,0
1,882	-12,3	-20,2
1,8825	-13,0	-20,7
1,883	-13,1	-20,3
1,8835	-12,4	-19,0
1,884	-10,9	-16,9
1,8845	-8,6	-14,2
1,885	-5,6	-10,7
1,8855	-2,1	-7,0
1,886	1,2	-4,2
1,8865	3,4	-3,0
1,887	4,5	-3,0
1,8875	4,5	-3,3
1,888	4,1	-2,8
1,8885	3,6	-1,4
1,889	3,7	1,3
1,8895	4,2	5,1
1,89	4,9	9,3
1,8905	5,4	12,5
1,891	5,4	14,0
1,8915	4,8	13,8
1,892	3,6	11,9
1,8925	1,9	9,4
1,893	-0,1	6,6
1,8935	-2,7	3,4
1,894	-5,8	0,3
1,8945	-9,1	-2,2
1,895	-11,9	-4,2
1,8955	-14,0	-6,2
1,896	-15,2	-9,0
1,8965	-15,2	-12,0
1,897	-14,1	-14,7
1,8975	-12,7	-17,1
1,898	-11,6	-19,1
1,8985	-10,8	-20,9
1,899	-9,7	-22,2
1,8995	-7,8	-22,6
1,9	-5,3	-22,0
1,9005	-2,9	-20,3
1,901	-1,1	-17,5
1,9015	-0,3	-13,7
1,902	-0,5	-9,6
1,9025	-1,4	-5,9
1,903	-3,1	-2,9
1,9035	-5,6	-0,1
1,904	-8,6	3,1
1,9045	-11,8	6,6
1,905	-14,6	10,3
1,9055	-16,8	14,2
1,906	-18,5	18,6
1,9065	-19,4	23,2
1,907	-19,4	26,5
1,9075	-18,6	26,8
1,908	-18,2	23,4
1,9085	-18,8	16,9
1,909	-19,6	9,4
1,9095	-19,2	3,1
1,91	-16,6	-1,3
1,9105	-11,8	-3,9
1,911	-5,3	-5,5
1,9115	1,9	-7,2
1,912	8,8	-9,7
1,9125	14,7	-13,3
1,913	19,7	-17,1
1,9135	23,8	-20,3
1,914	26,3	-22,8
1,9145	26,3	-24,9
1,915	24,0	-26,6
1,9155	20,6	-27,5
1,916	17,7	-27,0
1,9165	16,6	-24,6
1,917	17,2	-20,6
1,9175	18,6	-15,9
1,918	19,8	-11,4
1,9185	20,3	-7,9
1,919	19,7	-5,9
1,9195	17,7	-5,4
1,92	14,7	-5,6
1,9205	12,3	-4,9
1,921	11,2	-2,6
1,9215	11,2	0,8
1,922	11,3	3,9
1,9225	11,4	6,1
1,923	11,4	7,2
1,9235	11,4	7,5
1,924	11,6	7,6
1,9245	11,7	7,5
1,925	11,5	6,8
1,9255	11,0	5,2
1,926	10,1	2,6
1,9265	8,8	-1,1
1,927	7,2	-5,9
1,9275	6,4	-10,8
1,928	7,7	-14,3
1,9285	10,8	-15,9
1,929	14,3	-16,6
1,9295	16,3	-17,5
1,93	16,5	-19,5
1,9305	15,2	-22,4
1,931	12,8	-26,0
1,9315	9,7	-29,7
1,932	6,6	-32,8
1,9325	4,1	-34,3
1,933	2,7	-33,9
1,9335	2,3	-31,7
1,934	2,9	-28,2
1,9345	4,0	-23,8
1,935	5,4	-18,7
1,9355	6,3	-13,2
1,936	6,3	-8,3
1,9365	5,0	-4,8
1,937	2,9	-2,5
1,9375	0,7	-0,8
1,938	-1,3	0,9
1,9385	-2,9	2,8
1,939	-3,4	5,4
1,9395	-2,6	8,7
1,94	-0,3	12,2
1,9405	2,9	15,3
1,941	6,3	17,1
1,9415	8,7	17,0
1,942	9,1	14,5
1,9425	7,2	9,7
1,943	3,8	3,4
1,9435	0,1	-3,3
1,944	-2,3	-9,1
1,9445	-3,0	-12,8
1,945	-2,1	-14,5
1,9455	-0,6	-15,1
1,946	0,9	-15,4
1,9465	2,1	-15,8
1,947	2,9	-16,4
1,9475	3,1	-17,3
1,948	2,7	-19,0
1,9485	1,4	-21,4
1,949	-0,3	-24,1
1,9495	-2,1	-26,2
1,95	-3,1	-27,1
1,9505	-3,4	-26,3
1,951	-2,9	-23,9
1,9515	-1,5	-20,0
1,952	0,8	-15,4
1,9525	3,2	-11,4
1,953	5,0	-8,7
1,9535	5,9	-7,1
1,954	6,3	-5,9
1,9545	6,6	-4,7
1,955	6,8	-3,6
1,9555	7,0	-2,5
1,956	7,0	-0,8
1,9565	7,3	1,9
1,957	8,0	5,2
1,9575	9,2	8,1
1,958	10,3	9,8
1,9585	10,7	10,0
1,959	10,3	8,9
1,9595	9,1	6,9
1,96	7,4	3,9
1,9605	5,8	0,4
1,961	5,1	-2,7
1,9615	5,4	-4,9
1,962	5,9	-6,5
1,9625	6,0	-7,8
1,963	5,8	-9,0
1,9635	6,1	-10,1
1,964	7,3	-11,3
1,9645	8,8	-12,8
1,965	10,0	-14,6
1,9655	10,0	-16,7
1,966	8,9	-18,6
1,9665	7,1	-20,3
1,967	5,3	-21,5
1,9675	3,8	-22,1
1,968	3,0	-21,4
1,9685	3,1	-19,1
1,969	3,8	-15,3
1,9695	4,4	-11,6
1,97	4,3	-8,7
1,9705	3,9	-6,6
1,971	3,7	-4,7
1,9715	3,9	-2,6
1,972	4,4	-0,3
1,9725	5,2	2,3
1,973	6,4	5,2
1,9735	8,1	8,1
1,974	9,9	10,4
1,9745	11,2	11,6
1,975	11,4	11,2
1,9755	10,2	9,3
1,976	7,9	6,3
1,9765	4,9	2,7
1,977	2,0	-1,4
1,9775	-0,2	-4,9
1,978	-1,0	-6,9
1,9785	-0,6	-7,4
1,979	0,4	-7,2
1,9795	1,6	-6,8
1,98	2,3	-6,4
1,9805	2,4	-5,9
1,981	1,6	-5,7
1,9815	0,4	-6,0
1,982	-0,9	-6,4
1,9825	-2,4	-6,3
1,983	-3,7	-5,6
1,9835	-4,6	-4,9
1,984	-4,7	-5,4
1,9845	-4,1	-7,1
1,985	-2,9	-9,0
1,9855	-1,3	-9,9
1,986	0,2	-9,7
1,9865	1,0	-8,9
1,987	1,2	-8,1
1,9875	1,2	-7,1
1,988	1,7	-5,3
1,9885	2,4	-2,3
1,989	2,9	2,4
1,9895	2,6	8,3
1,99	1,3	14,0
1,9905	-0,7	18,3
1,991	-2,7	20,6
1,9915	-4,2	21,2
1,992	-5,2	20,4
1,9925	-5,9	18,4
1,993	-7,1	14,8
1,9935	-9,1	9,0
1,994	-11,6	1,5
1,9945	-13,8	-6,6
1,995	-15,1	-13,9
1,9955	-14,9	-19,1
1,996	-13,5	-21,5
1,9965	-11,5	-21,3
1,997	-9,1	-19,6
1,9975	-6,5	-18,0
1,998	-4,3	-17,2
1,9985	-2,8	-17,1
1,999	-2,2	-17,3
1,9995	-1,8	-17,3
2	-1,5	-17,1
2,0005	-2,2	-16,9
2,001	-4,3	-16,5
2,0015	-7,4	-15,8
2,002	-10,3	-14,8
2,0025	-12,4	-13,7
2,003	-13,8	-12,7
2,0035	-14,3	-11,5
2,004	-13,3	-9,6
2,0045	-9,8	-6,9
2,005	-4,7	-3,9
2,0055	0,5	-0,7
2,006	4,6	2,5
2,0065	7,2	5,5
2,007	9,4	8,3
2,0075	12,8	10,6
2,008	18,5	12,1
2,0085	26,5	12,8
2,009	34,9	12,9
2,0095	40,5	12,5
2,01	41,9	11,6
2,0105	39,9	10,1
2,011	37,0	8,6
2,0115	35,0	7,5
2,012	34,6	6,6
2,0125	35,3	5,4
2,013	36,8	4,0
2,0135	38,6	2,8
2,014	40,1	1,3
2,0145	40,1	-0,6
2,015	38,1	-3,6
2,0155	34,0	-7,5
2,016	28,4	-12,2
2,0165	22,1	-16,8
2,017	16,0	-20,5
2,0175	10,8	-22,7
2,018	7,3	-22,8
2,0185	6,0	-20,7
2,019	6,2	-17,6
2,0195	6,6	-15,1
2,02	6,3	-14,4
2,0205	5,5	-14,7
2,021	5,1	-14,5
2,0215	5,6	-13,0
2,022	6,8	-10,1
2,0225	8,1	-6,2
2,023	9,5	-1,9
2,0235	11,2	1,9
2,024	13,0	4,6
2,0245	14,5	5,9
2,025	15,3	5,9
2,0255	14,9	4,8
2,026	13,8	3,0
2,0265	11,9	0,6
2,027	9,7	-2,4
2,0275	7,8	-5,2
2,028	6,9	-7,0
2,0285	6,9	-7,8
2,029	7,5	-8,2
2,0295	8,3	-8,8
2,03	9,1	-9,7
2,0305	9,5	-11,2
2,031	9,3	-13,4
2,0315	8,3	-16,1
2,032	7,1	-18,7
2,0325	6,3	-20,3
2,033	6,5	-20,4
2,0335	7,8	-19,1
2,034	9,9	-17,0
2,0345	12,4	-14,4
2,035	15,1	-11,3
2,0355	17,4	-7,8
2,036	18,8	-4,7
2,0365	18,3	-2,9
2,037	15,9	-2,2
2,0375	12,4	-2,0
2,038	8,7	-1,6
2,0385	5,3	-0,8
2,039	3,1	0,9
2,0395	2,7	3,8
2,04	4,0	7,1
2,0405	6,4	10,0
2,041	8,9	11,8
2,0415	10,6	12,1
2,042	11,2	11,2
2,0425	11,2	9,2
2,043	10,9	6,4
2,0435	10,4	3,0
2,044	10,0	-0,4
2,0445	10,2	-2,8
2,045	11,4	-4,1
2,0455	13,4	-4,9
2,046	15,3	-6,2
2,0465	16,7	-8,1
2,047	17,0	-10,7
2,0475	16,0	-13,9
2,048	13,9	-17,3
2,0485	11,3	-20,5
2,049	8,6	-22,8
2,0495	6,7	-23,5
2,05	5,6	-22,7
2,0505	5,2	-20,5
2,051	5,3	-17,4
2,0515	5,8	-13,7
2,052	6,4	-9,5
2,0525	7,1	-5,6
2,053	7,6	-2,5
2,0535	8,0	-0,2
2,054	9,0	2,1
2,0545	10,4	4,7
2,055	12,0	7,7
2,0555	13,5	11,1
2,056	15,2	14,9
2,0565	17,1	18,8
2,057	19,1	22,5
2,0575	20,5	25,2
2,058	21,0	26,2
2,0585	20,3	24,7
2,059	18,9	21,2
2,0595	17,4	16,8
2,06	16,3	12,6
2,0605	15,3	9,2
2,061	14,3	6,8
2,0615	12,5	4,5
2,062	9,8	1,3
2,0625	6,4	-3,4
2,063	3,1	-9,0
2,0635	0,8	-14,2
2,064	-0,3	-18,4
2,0645	-0,7	-21,7
2,065	-1,2	-23,7
2,0655	-2,1	-24,5
2,066	-3,1	-24,0
2,0665	-3,8	-22,3
2,067	-3,4	-19,9
2,0675	-1,6	-17,1
2,068	1,7	-14,1
2,0685	5,9	-10,6
2,069	10,0	-6,8
2,0695	12,9	-3,6
2,07	14,3	-1,2
2,0705	14,6	0,8
2,071	14,6	3,0
2,0715	15,0	5,3
2,072	15,8	7,5
2,0725	17,3	9,8
2,073	19,5	12,2
2,0735	22,2	14,6
2,074	24,8	16,5
2,0745	26,8	17,3
2,075	28,0	17,1
2,0755	28,3	15,8
2,076	27,9	13,9
2,0765	26,8	11,5
2,077	25,1	9,0
2,0775	23,1	6,9
2,078	21,4	5,9
2,0785	20,5	6,0
2,079	20,2	6,7
2,0795	20,3	7,3
2,08	20,6	7,4
2,0805	20,7	6,4
2,081	19,8	3,7
2,0815	17,7	-0,7
2,082	15,1	-5,7
2,0825	12,8	-9,8
2,083	11,3	-12,2
2,0835	10,6	-12,8
2,084	10,7	-11,8
2,0845	11,6	-9,4
2,085	12,9	-6,1
2,0855	14,3	-2,6
2,086	15,0	-0,0
2,0865	15,1	1,3
2,087	15,0	2,4
2,0875	14,9	4,0
2,088	14,7	6,3
2,0885	14,1	9,1
2,089	13,3	12,4
2,0895	12,7	16,0
2,09	12,5	19,5
2,0905	12,2	22,0
2,091	11,0	22,9
2,0915	8,7	22,4
2,092	5,9	20,8
2,0925	3,4	19,0
2,093	1,4	17,1
2,0935	-0,4	14,7
2,094	-2,0	11,7
2,0945	-3,3	8,8
2,095	-4,1	6,4
2,0955	-4,5	4,3
2,096	-5,3	1,9
2,0965	-6,8	-0,9
2,097	-9,6	-4,0
2,0975	-14,1	-7,5
2,098	-19,8	-10,7
2,0985	-24,8	-12,9
2,099	-27,0	-13,5
2,0995	-25,9	-12,1
2,1	-21,6	-9,3
2,1005	-15,3	-5,5
2,101	-8,6	-1,4
2,1015	-2,1	3,0
2,102	3,8	7,8
2,1025	9,2	12,3
2,103	14,8	15,3
2,1035	20,5	16,6
2,104	26,4	16,1
2,1045	32,0	14,4
2,105	37,5	12,0
2,1055	43,3	10,0
2,106	49,3	9,5
2,1065	54,3	11,2
2,107	57,4	14,5
2,1075	58,7	18,2
2,108	58,9	21,0
2,1085	58,0	21,8
2,109	55,9	20,3
2,1095	52,6	16,9
2,11	48,2	12,0
2,1105	43,1	6,6
2,111	38,3	1,8
2,1115	35,2	-1,2
2,112	34,3	-2,3
2,1125	34,9	-2,1
2,113	36,2	-1,1
2,1135	37,3	-0,0
2,114	38,0	0,3
2,1145	37,8	-0,5
2,115	36,8	-1,9
2,1155	35,3	-3,3
2,116	33,8	-3,8
2,1165	32,4	-2,9
2,117	31,4	-0,6
2,1175	30,8	2,6
2,118	30,3	5,7
2,1185	29,8	7,9
2,119	28,5	8,5
2,1195	26,6	7,5
2,12	24,2	6,0
2,1205	21,9	5,1
2,121	20,1	5,0
2,1215	18,6	5,2
2,122	17,6	5,4
2,1225	17,3	6,2
2,123	18,0	8,4
2,1235	19,8	12,1
2,124	22,2	16,3
2,1245	24,4	19,5
2,125	26,1	20,8
2,1255	27,0	20,2
2,126	27,3	18,3
2,1265	27,0	15,6
2,127	26,2	12,6
2,1275	25,3	9,8
2,128	24,8	8,0
2,1285	24,6	7,2
2,129	24,5	6,6
2,1295	24,3	5,8
2,13	24,1	4,7
2,1305	23,8	3,1
2,131	22,9	0,6
2,1315	20,6	-2,9
2,132	17,2	-7,0
2,1325	13,6	-10,5
2,133	11,0	-12,3
2,1335	10,0	-12,2
2,134	10,4	-10,2
2,1345	11,8	-7,0
2,135	14,4	-2,5
2,1355	18,2	2,9
2,136	22,5	8,0
2,1365	26,3	11,7
2,137	28,9	13,6
2,1375	30,3	14,3
2,138	31,0	14,5
2,1385	31,2	15,2
2,139	31,6	17,3
2,1395	32,7	20,8
2,14	34,8	25,1
2,1405	37,2	28,6
2,141	38,8	30,4
2,1415	39,1	29,8
2,142	38,3	27,3
2,1425	36,8	23,4
2,143	34,8	18,6
2,1435	32,0	12,8
2,144	29,1	6,8
2,1445	26,8	1,7
2,145	26,0	-1,7
2,1455	26,3	-3,5
2,146	26,8	-4,6
2,1465	26,9	-5,3
2,147	26,1	-6,2
2,1475	24,4	-7,4
2,148	22,0	-9,2
2,1485	19,1	-11,0
2,149	16,3	-12,3
2,1495	14,1	-12,4
2,15	12,7	-11,2
2,1505	12,3	-8,8
2,151	12,9	-5,3
2,1515	14,2	-1,1
2,152	16,1	3,6
2,1525	17,8	8,2
2,153	18,7	11,9
2,1535	19,0	14,6
2,154	18,9	16,7
2,1545	19,2	18,2
2,155	19,9	19,2
2,1555	21,0	19,8
2,156	22,3	20,5
2,1565	23,9	21,6
2,157	25,8	23,2
2,1575	27,9	25,0
2,158	30,3	26,7
2,1585	33,3	27,8
2,159	36,7	28,3
2,1595	40,1	27,7
2,16	43,1	25,8
2,1605	44,9	22,9
2,161	45,6	19,9
2,1615	45,5	17,4
2,162	44,8	15,8
2,1625	43,6	14,8
2,163	42,2	13,8
2,1635	40,6	12,3
2,164	38,8	9,7
2,1645	36,6	5,9
2,165	34,1	1,8
2,1655	31,0	-1,4
2,166	27,8	-3,1
2,1665	25,3	-3,2
2,167	23,9	-1,9
2,1675	23,8	0,3
2,168	24,3	3,1
2,1685	25,3	6,1
2,169	26,8	8,7
2,1695	28,1	9,9
2,17	28,6	10,0
2,1705	28,3	9,7
2,171	27,7	10,3
2,1715	27,2	12,0
2,172	27,0	14,9
2,1725	27,4	18,8
2,173	28,5	23,1
2,1735	30,3	27,2
2,174	32,7	30,4
2,1745	35,4	32,5
2,175	37,9	33,1
2,1755	39,1	32,1
2,176	38,5	29,8
2,1765	36,3	26,4
2,177	33,0	22,0
2,1775	29,8	17,2
2,178	27,6	13,0
2,1785	26,6	10,1
2,179	26,7	8,4
2,1795	27,4	7,4
2,18	28,5	7,1
2,1805	30,0	6,8
2,181	31,3	6,0
2,1815	32,0	4,5
2,182	32,3	2,7
2,1825	32,4	1,3
2,183	32,8	1,4
2,1835	33,4	2,7
2,184	34,1	4,6
2,1845	34,9	6,4
2,185	36,2	8,2
2,1855	37,7	10,0
2,186	38,9	11,8
2,1865	39,2	13,4
2,187	38,3	14,7
2,1875	35,8	15,8
2,188	31,7	16,3
2,1885	26,7	16,5
2,189	22,4	17,2
2,1895	20,0	19,1
2,19	20,3	22,3
2,1905	23,3	26,3
2,191	27,8	29,9
2,1915	32,7	32,3
2,192	36,5	33,0
2,1925	39,0	31,9
2,193	40,5	29,3
2,1935	41,0	25,4
2,194	40,7	20,9
2,1945	40,3	16,9
2,195	40,9	14,0
2,1955	42,4	11,7
2,196	44,4	9,2
2,1965	45,6	6,4
2,197	45,5	3,8
2,1975	43,8	1,4
2,198	40,5	-0,7
2,1985	36,5	-2,3
2,199	32,6	-3,6
2,1995	29,3	-4,2
2,2	27,0	-4,0
2,2005	25,8	-2,8
2,201	24,8	-0,7
2,2015	22,6	2,6
2,202	19,0	6,9
2,2025	14,6	11,6
2,203	10,5	15,8
2,2035	7,5	19,3
2,204	5,6	22,4
2,2045	4,6	25,3
2,205	3,9	27,8
2,2055	3,8	30,2
2,206	4,8	32,4
2,2065	7,6	34,5
2,207	12,2	36,0
2,2075	17,8	36,4
2,208	23,5	35,7
2,2085	28,4	34,1
2,209	32,6	32,3
2,2095	37,2	30,4
2,21	43,6	28,6
2,2105	51,6	26,7
2,211	59,3	24,5
2,2115	65,0	22,1
2,212	68,4	19,4
2,2125	70,3	16,6
2,213	71,3	14,3
2,2135	71,7	13,4
2,214	71,3	13,8
2,2145	69,9	14,7
2,215	67,3	15,5
2,2155	63,6	16,0
2,216	59,6	16,5
2,2165	55,5	17,3
2,217	51,7	18,5
2,2175	48,3	19,9
2,218	45,6	21,7
2,2185	43,5	23,4
2,219	41,5	23,9
2,2195	38,7	22,1
2,22	34,7	17,8
2,2205	30,4	12,5
2,221	27,0	8,0
2,2215	25,1	5,8
2,222	24,5	6,3
2,2225	24,7	9,7
2,223	25,5	15,0
2,2235	27,3	20,8
2,224	30,3	25,6
2,2245	33,7	28,6
2,225	36,9	29,7
2,2255	39,1	29,0
2,226	40,2	26,7
2,2265	40,2	22,8
2,227	39,3	18,1
2,2275	38,1	13,4
2,228	37,2	10,1
2,2285	36,9	8,3
2,229	37,0	7,5
2,2295	37,3	7,1
2,23	38,0	6,6
2,2305	38,7	5,8
2,231	38,4	4,3
2,2315	36,4	2,1
2,232	32,4	-0,6
2,2325	27,7	-2,7
2,233	23,6	-3,3
2,2335	21,0	-2,3
2,234	20,3	0,3
2,2345	21,0	4,0
2,235	22,8	8,3
2,2355	25,5	12,8
2,236	28,3	16,7
2,2365	30,7	19,8
2,237	32,5	22,2
2,2375	33,9	24,2
2,238	35,0	26,0
2,2385	36,1	27,7
2,239	37,6	29,5
2,2395	40,1	32,0
2,24	43,8	34,8
2,2405	47,6	37,4
2,241	50,4	39,2
2,2415	51,2	39,5
2,242	49,8	38,5
2,2425	46,9	36,2
2,243	43,2	32,5
2,2435	39,4	27,7
2,244	36,3	22,7
2,2445	34,3	18,8
2,245	33,9	16,3
2,2455	34,4	14,7
2,246	35,5	13,5
2,2465	36,7	12,3
2,247	37,5	11,3
2,2475	37,5	9,8
2,248	36,6	7,6
2,2485	35,2	5,1
2,249	33,4	2,6
2,2495	31,5	0,8
2,25	29,4	-0,3
2,2505	27,5	-0,4
2,251	26,4	0,7
2,2515	26,7	3,4
2,252	27,9	7,5
2,2525	29,2	12,0
2,253	29,7	15,8
2,2535	29,3	18,5
2,254	28,5	20,7
2,2545	27,7	22,6
2,255	26,7	24,2
2,2555	25,7	25,8
2,256	25,0	27,8
2,2565	25,2	30,2
2,257	26,2	32,9
2,2575	27,3	35,1
2,258	27,9	36,4
2,2585	27,5	36,6
2,259	26,4	36,0
2,2595	25,2	34,6
2,26	24,5	32,4
2,2605	24,1	29,7
2,261	24,1	27,0
2,2615	24,3	24,9
2,262	24,9	23,3
2,2625	25,5	22,0
2,263	26,0	20,6
2,2635	26,3	19,0
2,264	26,5	16,9
2,2645	26,2	13,8
2,265	25,1	10,1
2,2655	23,4	6,6
2,266	21,9	4,6
2,2665	21,4	4,7
2,267	22,1	6,8
2,2675	23,1	9,7
2,268	23,4	11,9
2,2685	22,6	12,8
2,269	20,6	12,7
2,2695	18,1	12,3
2,27	16,2	12,3
2,2705	15,8	13,2
2,271	16,7	15,1
2,2715	18,4	17,3
2,272	20,8	19,5
2,2725	23,7	21,5
2,273	27,2	23,8
2,2735	30,6	26,3
2,274	33,3	28,6
2,2745	34,8	29,9
2,275	35,1	29,7
2,2755	34,3	27,8
2,276	33,2	24,8
2,2765	32,5	21,1
2,277	32,5	17,3
2,2775	32,9	14,1
2,278	33,4	12,3
2,2785	32,9	11,8
2,279	30,5	11,5
2,2795	26,4	10,9
2,28	21,7	9,9
2,2805	17,3	8,6
2,281	13,5	6,8
2,2815	10,1	4,6
2,282	7,1	2,3
2,2825	4,7	0,4
2,283	3,4	-0,5
2,2835	3,7	0,1
2,284	5,8	2,0
2,2845	9,3	4,9
2,285	14,0	8,7
2,2855	19,1	12,9
2,286	24,1	17,2
2,2865	28,4	20,8
2,287	32,0	23,8
2,2875	35,6	26,9
2,288	39,3	30,0
2,2885	42,7	33,0
2,289	45,8	35,4
2,2895	49,2	37,3
2,29	52,5	38,4
2,2905	54,7	38,3
2,291	54,0	36,9
2,2915	49,5	33,9
2,292	42,5	30,1
2,2925	35,2	26,2
2,293	29,3	22,8
2,2935	25,3	19,8
2,294	23,1	17,3
2,2945	22,9	15,6
2,295	24,0	14,5
2,2955	25,0	13,4
2,296	24,5	11,9
2,2965	22,3	10,2
2,297	19,2	8,9
2,2975	15,8	7,9
2,298	12,5	7,0
2,2985	9,5	6,5
2,299	7,2	7,0
2,2995	5,9	8,7
2,3	5,8	11,2
2,3005	6,3	13,5
2,301	6,7	14,8
2,3015	7,2	15,3
2,302	8,4	16,3
2,3025	10,4	17,9
2,303	12,1	19,3
2,3035	12,7	19,5
2,304	12,9	18,8
2,3045	14,2	18,3
2,305	17,3	18,7
2,3055	21,8	20,3
2,306	26,8	22,8
2,3065	31,4	25,8
2,307	35,7	28,5
2,3075	39,5	30,4
2,308	42,0	30,3
2,3085	42,3	27,8
2,309	40,0	23,9
2,3095	36,1	20,2
2,31	31,8	17,3
2,3105	28,2	15,0
2,311	25,8	12,9
2,3115	25,2	11,2
2,312	26,4	9,9
2,3125	28,7	9,0
2,313	31,5	8,6
2,3135	34,0	8,8
2,314	35,3	9,0
2,3145	34,5	8,7
2,315	31,3	7,8
2,3155	26,3	6,8
2,316	20,6	5,9
2,3165	15,3	5,8
2,317	11,4	6,4
2,3175	9,3	7,8
2,318	9,1	9,8
2,3185	10,3	12,1
2,319	12,1	14,0
2,3195	13,1	14,8
2,32	12,9	14,7
2,3205	11,6	14,5
2,321	9,8	15,0
2,3215	7,9	16,7
2,322	6,4	19,3
2,3225	6,4	22,7
2,323	9,1	26,5
2,3235	15,2	30,2
2,324	23,5	33,0
2,3245	31,7	34,1
2,325	37,3	32,7
2,3255	39,2	28,9
2,326	37,7	23,3
2,3265	33,8	17,1
2,327	29,5	11,5
2,3275	26,0	7,5
2,328	24,4	5,9
2,3285	24,7	6,1
2,329	26,0	7,2
2,3295	27,8	8,1
2,33	29,5	8,4
2,3305	30,5	7,5
2,331	30,2	5,1
2,3315	28,5	1,6
2,332	25,5	-2,3
2,3325	21,8	-5,4
2,333	18,3	-6,8
2,3335	15,6	-6,4
2,334	14,4	-4,6
2,3345	14,5	-1,8
2,335	15,7	1,9
2,3355	17,8	6,2
2,336	19,9	10,8
2,3365	21,7	15,0
2,337	22,9	18,8
2,3375	23,8	22,6
2,338	24,2	26,2
2,3385	23,6	29,2
2,339	22,4	31,5
2,3395	21,4	33,3
2,34	21,8	34,9
2,3405	23,7	36,0
2,341	26,3	36,0
2,3415	28,4	34,1
2,342	29,2	30,0
2,3425	28,5	24,5
2,343	27,1	18,8
2,3435	26,0	14,0
2,344	25,8	10,8
2,3445	26,8	10,0
2,345	28,8	11,2
2,3455	30,9	13,2
2,346	32,4	14,4
2,3465	33,2	13,8
2,347	33,7	11,7
2,3475	33,8	8,8
2,348	33,8	5,9
2,3485	33,7	3,4
2,349	33,8	1,6
2,3495	34,0	1,0
2,35	34,2	1,9
2,3505	33,7	3,8
2,351	32,6	5,8
2,3515	30,9	6,9
2,352	29,2	7,1
2,3525	27,8	6,9
2,353	26,6	6,5
2,3535	25,4	6,5
2,354	24,2	7,3
2,3545	23,3	9,1
2,355	22,7	11,4
2,3555	22,4	14,2
2,356	23,0	17,5
2,3565	24,8	21,1
2,357	27,8	24,8
2,3575	31,3	28,2
2,358	33,9	30,7
2,3585	34,8	31,5
2,359	33,7	30,2
2,3595	30,8	26,8
2,36	26,6	21,7
2,3605	21,8	15,9
2,361	16,8	11,1
2,3615	12,4	8,2
2,362	9,2	7,0
2,3625	7,4	6,6
2,363	6,9	5,9
2,3635	6,6	4,8
2,364	5,2	3,2
2,3645	1,9	1,1
2,365	-2,9	-1,5
2,3655	-7,6	-4,1
2,366	-10,1	-6,0
2,3665	-9,2	-6,8
2,367	-5,5	-6,1
2,3675	-1,2	-4,3
2,368	2,2	-1,8
2,3685	4,9	1,6
2,369	7,8	5,6
2,3695	11,2	9,5
2,37	14,8	12,9
2,3705	18,1	15,9
2,371	21,4	18,9
2,3715	25,5	22,0
2,372	30,8	25,1
2,3725	36,9	28,2
2,373	43,2	31,3
2,3735	48,8	33,9
2,374	52,8	36,0
2,3745	54,3	37,1
2,375	53,0	37,3
2,3755	49,3	36,8
2,376	44,9	36,0
2,3765	41,1	35,0
2,377	38,0	33,6
2,3775	35,3	31,2
2,378	32,3	27,6
2,3785	29,0	22,3
2,379	25,6	15,7
2,3795	22,9	8,7
2,38	21,3	2,9
2,3805	21,2	-1,2
2,381	21,8	-4,3
2,3815	21,9	-7,7
2,382	20,9	-11,5
2,3825	19,0	-14,8
2,383	17,3	-16,2
2,3835	17,0	-14,5
2,384	18,3	-10,0
2,3845	20,6	-3,5
2,385	23,3	4,1
2,3855	26,3	11,8
2,386	28,8	18,0
2,3865	30,0	22,1
2,387	29,3	24,2
2,3875	27,3	25,1
2,388	24,3	25,7
2,3885	21,1	26,4
2,389	18,2	27,6
2,3895	16,0	29,6
2,39	15,0	31,8
2,3905	14,9	33,1
2,391	15,2	32,3
2,3915	14,9	29,6
2,392	13,4	26,4
2,3925	11,4	24,0
2,393	9,7	22,7
2,3935	8,6	21,1
2,394	8,2	18,5
2,3945	8,4	15,0
2,395	9,1	10,9
2,3955	9,9	6,3
2,396	11,3	1,6
2,3965	13,4	-2,2
2,397	16,3	-4,2
2,3975	19,0	-5,1
2,398	20,5	-5,9
2,3985	20,4	-6,8
2,399	18,9	-7,6
2,3995	16,9	-7,9
2,4	15,3	-7,1
2,4005	14,4	-4,8
2,401	13,8	-1,3
2,4015	13,0	3,2
2,402	12,3	8,2
2,4025	11,7	13,4
2,403	11,2	18,1
2,4035	10,7	22,0
2,404	10,4	25,0
2,4045	10,5	27,1
2,405	10,8	28,3
2,4055	11,3	28,5
2,406	12,3	28,4
2,4065	14,5	29,1
2,407	18,1	30,8
2,4075	23,0	33,0
2,408	28,5	34,3
2,4085	33,3	33,7
2,409	37,1	31,0
2,4095	40,0	26,9
2,41	41,7	21,9
2,4105	41,8	16,6
2,411	40,7	11,8
2,4115	38,9	8,0
2,412	37,3	5,3
2,4125	35,5	2,9
2,413	33,2	0,4
2,4135	30,4	-2,4
2,414	27,7	-5,3
2,4145	25,3	-7,8
2,415	23,5	-9,8
2,4155	22,1	-11,1
2,416	20,9	-11,4
2,4165	20,1	-10,5
2,417	19,9	-8,4
2,4175	20,5	-5,5
2,418	21,7	-2,1
2,4185	23,1	1,8
2,419	24,3	5,9
2,4195	24,6	9,5
2,42	23,8	12,3
2,4205	22,3	14,4
2,421	20,8	16,6
2,4215	19,6	18,8
2,422	18,3	21,2
2,4225	17,3	23,6
2,423	17,2	26,5
2,4235	18,2	29,5
2,424	19,9	32,2
2,4245	21,6	34,1
2,425	22,6	35,0
2,4255	22,2	34,9
2,426	20,1	33,8
2,4265	16,7	31,7
2,427	12,6	27,9
2,4275	8,8	22,7
2,428	6,3	17,2
2,4285	5,7	12,7
2,429	7,3	10,0
2,4295	10,8	8,9
2,43	15,0	8,4
2,4305	18,5	7,1
2,431	20,7	4,0
2,4315	21,9	-0,2
2,432	22,5	-4,5
2,4325	22,8	-7,9
2,433	22,9	-9,7
2,4335	24,1	-9,3
2,434	27,4	-6,9
2,4345	33,0	-2,9
2,435	39,4	2,0
2,4355	44,1	6,7
2,436	45,2	10,2
2,4365	42,3	11,9
2,437	37,0	12,5
2,4375	31,3	12,9
2,438	26,4	13,8
2,4385	23,0	15,5
2,439	21,2	17,9
2,4395	21,1	21,2
2,44	22,3	24,7
2,4405	24,0	27,7
2,441	25,6	29,2
2,4415	26,6	29,2
2,442	27,3	28,0
2,4425	27,7	26,0
2,443	27,9	23,3
2,4435	27,6	19,9
2,444	26,6	15,9
2,4445	25,5	12,0
2,445	24,9	9,0
2,4455	24,9	6,8
2,446	25,3	4,8
2,4465	26,0	2,9
2,447	26,8	1,2
2,4475	27,3	-0,6
2,448	27,0	-2,5
2,4485	25,8	-4,4
2,449	24,0	-5,9
2,4495	21,7	-6,6
2,45	19,2	-6,7
2,4505	16,5	-6,2
2,451	13,6	-5,3
2,4515	10,9	-3,7
2,452	8,5	-1,1
2,4525	6,5	2,1
2,453	4,5	4,8
2,4535	2,6	7,1
2,454	1,5	9,7
2,4545	1,5	13,1
2,455	2,7	16,9
2,4555	4,5	20,5
2,456	7,0	23,8
2,4565	10,3	27,3
2,457	14,3	31,3
2,4575	18,5	35,4
2,458	22,9	38,8
2,4585	27,1	41,0
2,459	31,0	41,3
2,4595	34,3	39,3
2,46	36,4	34,8
2,4605	36,7	28,1
2,461	35,9	21,1
2,4615	34,7	15,7
2,462	33,7	12,1
2,4625	32,5	9,3
2,463	30,7	5,8
2,4635	28,2	0,5
2,464	25,1	-6,5
2,4645	21,4	-14,4
2,465	17,6	-21,0
2,4655	14,4	-24,8
2,466	12,2	-24,9
2,4665	11,0	-22,4
2,467	10,7	-18,2
2,4675	11,1	-13,4
2,468	12,2	-8,3
2,4685	13,9	-3,2
2,469	16,3	1,8
2,4695	18,7	6,1
2,47	20,6	9,1
2,4705	21,6	10,9
2,471	21,7	12,1
2,4715	20,8	13,2
2,472	18,7	14,4
2,4725	16,0	16,1
2,473	13,6	18,4
2,4735	12,1	21,3
2,474	11,5	24,6
2,4745	11,5	27,4
2,475	12,0	29,0
2,4755	12,8	29,1
2,476	13,6	27,9
2,4765	13,6	25,9
2,477	12,7	23,2
2,4775	11,1	20,3
2,478	9,8	17,6
2,4785	9,1	15,2
2,479	8,5	12,3
2,4795	7,8	8,4
2,48	7,8	4,0
2,4805	9,3	-0,4
2,481	12,2	-4,8
2,4815	15,3	-8,8
2,482	18,0	-11,9
2,4825	20,2	-13,7
2,483	22,0	-13,8
2,4835	23,9	-12,3
2,484	26,3	-9,5
2,4845	29,5	-6,1
2,485	33,2	-2,2
2,4855	36,7	1,8
2,486	38,7	4,7
2,4865	38,9	6,0
2,487	37,4	6,4
2,4875	35,2	7,1
2,488	32,7	8,5
2,4885	30,5	10,4
2,489	29,1	12,9
2,4895	28,8	15,9
2,49	29,9	19,4
2,4905	31,8	22,8
2,491	33,8	25,5
2,4915	35,2	26,9
2,492	35,7	26,8
2,4925	35,4	25,5
2,493	34,4	23,3
2,4935	33,0	20,3
2,494	31,5	17,0
2,4945	30,3	14,6
2,495	29,6	13,7
2,4955	29,0	13,8
2,496	27,9	14,1
2,4965	26,1	13,6
2,497	23,3	12,2
2,4975	19,3	9,3
2,498	14,2	4,9
2,4985	8,5	-0,6
2,499	3,3	-5,9
2,4995	-0,1	-9,6
2,5	-1,3	-10,9
2,5005	-0,2	-9,8
2,501	2,6	-6,9
2,5015	6,6	-2,8
2,502	11,5	1,9
2,5025	16,5	6,7
2,503	20,8	10,9
2,5035	23,8	14,5
2,504	25,1	18,0
2,5045	24,5	21,6
2,505	22,7	25,1
2,5055	20,2	28,5
2,506	17,7	31,5
2,5065	15,2	33,1
2,507	13,0	32,7
2,5075	11,3	30,3
2,508	10,1	26,8
2,5085	9,0	23,3
2,509	8,0	20,3
2,5095	7,5	18,2
2,51	7,5	16,6
2,5105	8,6	15,1
2,511	11,6	13,3
2,5115	16,2	11,4
2,512	21,3	8,9
2,5125	25,3	5,4
2,513	27,8	1,2
2,5135	29,3	-3,1
2,514	30,4	-6,8
2,5145	31,6	-9,8
2,515	32,7	-11,7
2,5155	33,1	-12,3
2,516	32,4	-11,7
2,5165	30,7	-10,4
2,517	28,4	-9,1
2,5175	25,9	-8,3
2,518	23,5	-7,4
2,5185	21,6	-5,6
2,519	20,7	-2,3
2,5195	20,4	1,6
2,52	20,2	5,1
2,5205	19,8	7,8
2,521	19,2	9,9
2,5215	18,6	11,7
2,522	18,0	13,3
2,5225	17,8	15,1
2,523	18,4	17,2
2,5235	19,8	19,4
2,524	21,6	21,5
2,5245	23,0	22,7
2,525	23,4	22,8
2,5255	22,1	21,5
2,526	19,3	19,0
2,5265	15,8	15,4
2,527	12,0	11,0
2,5275	8,7	6,8
2,528	6,6	3,8
2,5285	5,9	2,4
2,529	6,4	1,9
2,5295	7,1	1,3
2,53	7,6	0,1
2,5305	8,0	-1,8
2,531	8,4	-4,2
2,5315	8,4	-7,0
2,532	8,0	-9,7
2,5325	7,3	-11,7
2,533	7,5	-12,4
2,5335	9,6	-11,6
2,534	13,6	-9,4
2,5345	18,4	-6,1
2,535	22,8	-2,1
2,5355	26,0	2,0
2,536	27,6	5,6
2,5365	27,6	8,3
2,537	26,5	10,2
2,5375	25,2	12,0
2,538	24,3	14,0
2,5385	23,8	16,0
2,539	23,8	18,0
2,5395	24,3	20,3
2,54	25,4	23,1
2,5405	26,8	26,0
2,541	28,0	28,4
2,5415	28,4	29,4
2,542	27,8	28,8
2,5425	26,4	26,8
2,543	25,0	24,2
2,5435	23,6	21,1
2,544	22,3	17,8
2,5445	21,2	15,1
2,545	20,3	13,4
2,5455	19,5	12,4
2,546	18,4	11,3
2,5465	16,7	9,8
2,547	14,8	8,0
2,5475	13,1	5,9
2,548	11,8	3,1
2,5485	10,5	-0,6
2,549	9,0	-4,7
2,5495	7,6	-8,7
2,55	6,3	-12,2
2,5505	5,2	-14,7
2,551	4,2	-15,5
2,5515	3,8	-14,3
2,552	4,2	-11,8
2,5525	5,2	-9,2
2,553	6,1	-7,0
2,5535	6,8	-4,9
2,554	7,8	-2,1
2,5545	9,2	1,5
2,555	10,6	5,4
2,5555	11,3	8,9
2,556	11,2	12,3
2,5565	10,7	15,7
2,557	10,2	19,2
2,5575	9,6	22,2
2,558	8,5	23,9
2,5585	6,4	24,0
2,559	3,5	22,5
2,5595	0,2	19,8
2,56	-3,3	16,2
2,5605	-6,7	12,2
2,561	-9,3	8,7
2,5615	-10,9	6,5
2,562	-11,7	5,4
2,5625	-12,6	4,8
2,563	-13,5	4,2
2,5635	-13,9	3,4
2,564	-13,4	2,3
2,5645	-11,8	0,4
2,565	-9,4	-1,9
2,5655	-6,4	-4,0
2,566	-2,7	-5,2
2,5665	1,8	-5,0
2,567	7,1	-3,4
2,5675	12,5	-1,0
2,568	17,2	1,5
2,5685	20,7	3,8
2,569	23,8	6,0
2,5695	27,3	7,9
2,57	31,8	9,4
2,5705	36,5	10,4
2,571	40,8	11,2
2,5715	44,0	12,2
2,572	45,7	13,4
2,5725	45,6	14,9
2,573	43,5	16,8
2,5735	39,8	18,7
2,574	35,8	20,4
2,5745	32,6	21,7
2,575	30,7	22,8
2,5755	29,5	23,9
2,576	28,3	24,6
2,5765	26,0	24,0
2,577	22,0	21,3
2,5775	16,6	16,7
2,578	11,1	11,4
2,5785	7,0	6,6
2,579	5,1	2,7
2,5795	5,1	-0,4
2,58	6,5	-2,9
2,5805	8,7	-4,7
2,581	11,3	-6,3
2,5815	13,6	-7,7
2,582	14,3	-8,8
2,5825	12,7	-9,1
2,583	9,1	-8,4
2,5835	4,9	-6,6
2,584	1,4	-3,8
2,5845	-0,8	-0,1
2,585	-1,8	4,2
2,5855	-1,8	8,3
2,586	-1,6	11,3
2,5865	-1,8	12,5
2,587	-2,3	12,3
2,5875	-2,3	11,8
2,588	-1,3	11,6
2,5885	0,3	11,4
2,589	2,5	11,2
2,5895	6,0	11,5
2,59	11,1	12,4
2,5905	16,8	13,8
2,591	21,5	14,8
2,5915	23,8	15,0
2,592	24,0	13,9
2,5925	23,3	11,9
2,593	22,5	9,1
2,5935	21,4	5,6
2,594	19,5	2,2
2,5945	17,0	-0,3
2,595	14,5	-1,3
2,5955	12,3	-1,5
2,596	10,5	-1,7
2,5965	8,9	-2,3
2,597	7,2	-3,3
2,5975	5,1	-4,8
2,598	2,3	-6,8
2,5985	-0,9	-9,1
2,599	-3,9	-11,3
2,5995	-6,0	-12,8
2,6	-7,0	-13,4
2,6005	-7,1	-12,8
2,601	-6,5	-10,9
2,6015	-5,2	-7,7
2,602	-2,8	-3,1
2,6025	1,0	2,2
2,603	5,7	7,1
2,6035	10,6	11,3
2,604	14,6	14,8
2,6045	16,9	17,9
2,605	17,0	20,3
2,6055	15,3	21,5
2,606	13,3	22,0
2,6065	12,3	22,1
2,607	13,3	22,1
2,6075	15,9	22,0
2,608	18,8	21,4
2,6085	20,9	20,2
2,609	21,2	18,1
2,6095	19,7	14,8
2,61	16,8	10,3
2,6105	13,2	5,0
2,611	10,1	0,8
2,6115	8,3	-1,5
2,612	7,6	-2,0
2,6125	7,2	-1,9
2,613	6,3	-2,2
2,6135	4,9	-3,0
2,614	3,5	-4,5
2,6145	2,3	-6,9
2,615	1,1	-10,1
2,6155	-0,3	-13,5
2,616	-1,8	-16,2
2,6165	-3,1	-17,4
2,617	-3,9	-16,8
2,6175	-4,2	-14,5
2,618	-3,7	-10,8
2,6185	-2,3	-6,3
2,619	-0,3	-1,7
2,6195	1,6	2,3
2,62	2,8	5,1
2,6205	3,3	6,8
2,621	3,6	8,3
2,6215	3,9	9,8
2,622	4,6	11,5
2,6225	6,0	13,6
2,623	8,3	16,3
2,6235	11,0	19,3
2,624	14,0	22,5
2,6245	17,2	25,0
2,625	20,5	26,6
2,6255	23,0	26,8
2,626	24,2	25,1
2,6265	23,4	21,5
2,627	20,7	16,2
2,6275	17,2	10,8
2,628	14,3	7,0
2,6285	13,1	5,8
2,629	13,2	6,3
2,6295	13,8	7,0
2,63	14,2	7,0
2,6305	14,4	5,5
2,631	14,4	2,4
2,6315	13,6	-2,2
2,632	11,3	-7,6
2,6325	7,8	-12,8
2,633	4,0	-16,1
2,6335	1,4	-16,4
2,634	0,5	-13,7
2,6345	0,9	-8,8
2,635	2,0	-2,7
2,6355	3,3	3,7
2,636	4,2	9,3
2,6365	4,3	13,2
2,637	3,1	15,3
2,6375	0,7	16,3
2,638	-2,4	17,1
2,6385	-5,8	17,6
2,639	-8,6	17,4
2,6395	-10,2	17,0
2,64	-9,9	17,3
2,6405	-7,7	18,8
2,641	-3,8	21,3
2,6415	0,8	23,5
2,642	4,9	24,4
2,6425	7,7	23,8
2,643	9,2	21,9
2,6435	9,9	18,8
2,644	10,3	14,9
2,6445	11,2	11,1
2,645	12,8	8,4
2,6455	14,2	6,8
2,646	14,8	5,6
2,6465	14,6	4,3
2,647	13,7	2,8
2,6475	12,2	0,8
2,648	9,7	-1,7
2,6485	6,7	-4,2
2,649	4,0	-6,0
2,6495	2,7	-6,3
2,65	3,2	-5,1
2,6505	5,4	-3,0
2,651	8,8	-0,8
2,6515	12,6	1,2
2,652	16,3	3,5
2,6525	19,8	6,1
2,653	23,1	8,5
2,6535	26,1	10,2
2,654	28,9	11,6
2,6545	31,2	12,9
2,655	32,5	13,8
2,6555	32,8	14,1
2,656	32,8	13,8
2,6565	32,5	13,3
2,657	31,8	13,1
2,6575	30,6	13,2
2,658	29,1	13,7
2,6585	27,4	14,4
2,659	25,7	14,8
2,6595	23,9	14,3
2,66	21,9	12,6
2,6605	19,9	9,7
2,661	18,4	6,7
2,6615	18,1	4,4
2,662	18,8	3,0
2,6625	19,9	1,7
2,663	20,7	-0,1
2,6635	20,9	-2,3
2,664	20,6	-4,5
2,6645	19,6	-7,3
2,665	18,0	-10,7
2,6655	16,0	-13,8
2,666	14,0	-15,6
2,6665	12,4	-15,2
2,667	11,4	-12,7
2,6675	10,5	-8,7
2,668	9,2	-3,8
2,6685	7,3	1,6
2,669	5,2	7,2
2,6695	3,3	12,7
2,67	1,6	17,5
2,6705	0,4	21,8
2,671	0,3	25,8
2,6715	1,6	29,3
2,672	3,8	32,1
2,6725	5,9	34,2
2,673	6,6	35,8
2,6735	5,6	37,1
2,674	3,9	37,7
2,6745	2,9	37,2
2,675	3,0	35,0
2,6755	4,0	31,2
2,676	5,3	26,5
2,6765	6,7	21,2
2,677	7,8	15,3
2,6775	8,5	8,9
2,678	9,3	3,3
2,6785	10,6	-0,3
2,679	12,5	-1,8
2,6795	15,1	-2,6
2,68	18,2	-3,5
2,6805	21,2	-5,1
2,681	23,1	-7,3
2,6815	23,6	-9,9
2,682	22,9	-12,2
2,6825	21,7	-13,5
2,683	20,9	-13,3
2,6835	21,3	-11,4
2,684	22,5	-8,3
2,6845	23,6	-4,4
2,685	24,0	0,0
2,6855	23,8	4,4
2,686	23,3	8,0
2,6865	22,7	9,9
2,687	21,8	10,5
2,6875	20,9	10,9
2,688	20,2	11,9
2,6885	19,9	13,9
2,689	20,4	16,8
2,6895	21,8	20,3
2,69	23,9	24,1
2,6905	25,9	27,5
2,691	27,2	29,9
2,6915	27,3	30,6
2,692	26,2	29,5
2,6925	23,8	26,7
2,693	20,6	22,7
2,6935	17,3	17,9
2,694	14,2	13,0
2,6945	12,0	9,2
2,695	11,0	7,1
2,6955	10,3	6,6
2,696	9,2	6,7
2,6965	7,4	6,5
2,697	5,3	5,8
2,6975	3,4	4,5
2,698	1,8	2,5
2,6985	0,7	0,6
2,699	0,0	-0,9
2,6995	-0,3	-1,4
2,7	0,1	-0,9
2,7005	1,3	0,5
2,701	3,2	2,5
2,7015	5,4	5,1
2,702	7,8	8,4
2,7025	10,2	12,2
2,703	12,3	15,7
2,7035	14,4	18,5
2,704	16,8	20,6
2,7045	19,4	21,8
2,705	20,8	21,8
2,7055	19,9	20,9
2,706	16,9	20,6
2,7065	13,6	22,0
2,707	11,7	24,8
2,7075	11,5	28,1
2,708	12,9	30,7
2,7085	15,0	32,1
2,709	17,0	32,5
2,7095	18,7	32,1
2,71	20,4	30,4
2,7105	22,2	27,2
2,711	23,9	22,8
2,7115	25,2	17,9
2,712	25,5	12,6
2,7125	24,5	6,9
2,713	22,5	1,2
2,7135	20,5	-3,7
2,714	19,6	-7,2
2,7145	19,8	-9,2
2,715	20,0	-10,4
2,7155	19,5	-11,2
2,716	17,9	-11,5
2,7165	15,6	-10,8
2,717	13,7	-8,8
2,7175	13,0	-5,5
2,718	13,9	-1,2
2,7185	16,0	3,9
2,719	18,5	9,0
2,7195	20,2	12,8
2,72	20,7	14,9
2,7205	19,9	15,7
2,721	18,8	16,4
2,7215	17,8	17,8
2,722	17,4	19,7
2,7225	17,9	22,0
2,723	19,2	24,7
2,7235	21,1	27,2
2,724	23,1	29,0
2,7245	24,8	29,8
2,725	25,9	29,7
2,7255	26,3	28,6
2,726	26,0	26,7
2,7265	25,1	23,9
2,727	23,8	20,3
2,7275	22,6	17,1
2,728	22,3	15,3
2,7285	23,5	15,6
2,729	25,8	16,7
2,7295	28,0	17,3
2,73	29,4	16,4
2,7305	30,0	14,2
2,731	29,5	10,9
2,7315	28,0	7,2
2,732	25,8	3,7
2,7325	23,1	1,0
2,733	20,1	-0,9
2,7335	16,9	-2,3
2,734	13,4	-3,8
2,7345	9,7	-5,5
2,735	6,0	-6,2
2,7355	2,5	-4,6
2,736	-0,5	-0,6
2,7365	-2,8	4,6
2,737	-4,3	10,0
2,7375	-4,5	15,2
2,738	-3,7	20,3
2,7385	-2,6	24,9
2,739	-1,6	28,9
2,7395	-0,3	32,2
2,74	1,5	35,0
2,7405	4,4	37,3
2,741	8,6	38,9
2,7415	13,6	39,0
2,742	18,3	36,7
2,7425	21,7	31,8
2,743	23,4	25,1
2,7435	24,0	18,4
2,744	24,4	13,2
2,7445	24,9	10,3
2,745	25,2	9,1
2,7455	24,8	7,7
2,746	23,8	4,9
2,7465	22,6	1,4
2,747	21,4	-1,5
2,7475	20,1	-3,6
2,748	18,1	-5,3
2,7485	15,7	-7,4
2,749	13,3	-9,7
2,7495	11,3	-11,3
2,75	9,8	-11,8
2,7505	8,7	-10,7
2,751	8,0	-8,2
2,7515	7,7	-4,7
2,752	7,8	-0,6
2,7525	8,6	3,6
2,753	9,7	7,1
2,7535	10,8	9,6
2,754	11,7	11,5
2,7545	12,4	13,5
2,755	12,7	15,5
2,7555	12,5	17,4
2,756	12,4	19,6
2,7565	12,7	22,3
2,757	13,8	25,7
2,7575	15,4	29,1
2,758	17,2	32,1
2,7585	18,8	33,9
2,759	20,1	34,2
2,7595	20,7	32,4
2,76	20,1	28,6
2,7605	18,0	23,6
2,761	15,1	18,9
2,7615	12,3	15,8
2,762	10,5	14,7
2,7625	9,7	14,6
2,763	9,0	14,1
2,7635	7,5	12,8
2,764	4,0	10,9
2,7645	-1,6	8,7
2,765	-8,4	6,8
2,7655	-15,1	5,0
2,766	-20,4	3,3
2,7665	-23,3	1,8
2,767	-23,8	1,0
2,7675	-22,2	1,1
2,768	-19,2	2,1
2,7685	-15,0	4,0
2,769	-8,8	6,5
2,7695	-0,8	8,9
2,77	7,0	10,4
2,7705	12,7	11,3
2,771	15,1	11,8
2,7715	15,6	12,3
2,772	16,6	13,1
2,7725	20,4	15,0
2,773	27,2	18,0
2,7735	34,9	21,3
2,774	41,1	23,7
2,7745	44,3	24,3
2,775	44,4	23,3
2,7755	41,9	21,2
2,776	37,7	18,5
2,7765	33,2	15,5
2,777	29,2	12,3
2,7775	25,8	9,4
2,778	23,7	7,2
2,7785	22,9	6,0
2,779	23,0	5,6
2,7795	23,3	5,3
2,78	23,3	4,7
2,7805	22,8	3,8
2,781	21,7	2,3
2,7815	20,0	0,1
2,782	17,7	-2,3
2,7825	15,3	-4,4
2,783	13,4	-5,8
2,7835	12,3	-6,3
2,784	11,8	-5,6
2,7845	11,8	-3,8
2,785	12,2	-0,7
2,7855	13,1	3,7
2,786	14,6	8,3
2,7865	16,2	12,0
2,787	17,2	14,7
2,7875	17,0	16,8
2,788	15,2	18,4
2,7885	11,9	19,8
2,789	7,9	21,2
2,7895	4,2	23,2
2,79	1,8	25,9
2,7905	0,8	28,9
2,791	0,5	31,3
2,7915	-0,4	32,4
2,792	-2,2	32,1
2,7925	-4,8	30,3
2,793	-7,7	27,3
2,7935	-10,8	23,3
2,794	-13,7	18,8
2,7945	-15,2	14,7
2,795	-14,5	12,0
2,7955	-11,2	10,6
2,796	-5,7	9,6
2,7965	1,2	8,7
2,797	8,1	7,7
2,7975	13,3	6,0
2,798	15,3	3,4
2,7985	14,4	0,1
2,799	12,5	-2,9
2,7995	11,7	-4,5
2,8	13,3	-3,8
2,8005	17,4	-1,0
2,801	22,4	3,1
2,8015	27,0	8,0
2,802	30,3	13,4
2,8025	32,1	18,7
2,803	32,2	22,6
2,8035	30,2	24,3
2,804	26,3	24,0
2,8045	21,4	22,8
2,805	16,5	21,7
2,8055	12,6	21,3
2,806	10,3	21,3
2,8065	8,8	21,3
2,807	7,6	20,2
2,8075	6,4	18,4
2,808	5,7	16,8
2,8085	5,6	15,9
2,809	5,9	16,0
2,8095	6,4	16,5
2,81	6,8	16,9
2,8105	6,5	16,4
2,811	5,8	15,0
2,8115	4,9	13,4
2,812	4,4	12,1
2,8125	4,0	10,8
2,813	3,8	9,7
2,8135	3,7	8,6
2,814	3,2	7,0
2,8145	1,9	4,0
2,815	-0,0	-1,0
2,8155	-2,5	-7,8
2,816	-5,0	-14,7
2,8165	-7,1	-19,9
2,817	-8,4	-21,7
2,8175	-8,7	-20,0
2,818	-8,3	-15,9
2,8185	-7,2	-10,5
2,819	-5,5	-4,9
2,8195	-4,0	0,0
2,82	-3,7	3,6
2,8205	-4,6	6,2
2,821	-6,5	8,7
2,8215	-8,8	11,4
2,822	-11,0	14,4
2,8225	-12,5	17,8
2,823	-12,7	21,5
2,8235	-11,5	25,5
2,824	-9,4	29,5
2,8245	-7,4	32,7
2,825	-6,0	34,5
2,8255	-5,4	34,2
2,826	-5,2	31,8
2,8265	-5,0	28,0
2,827	-4,6	23,3
2,8275	-3,4	18,9
2,828	-0,9	15,3
2,8285	2,9	12,6
2,829	6,8	10,1
2,8295	9,8	7,3
2,83	11,8	4,4
2,8305	13,4	2,1
2,831	14,7	0,3
2,8315	15,5	-0,9
2,832	15,3	-1,9
2,8325	13,7	-2,8
2,833	11,1	-3,8
2,8335	8,2	-5,3
2,834	5,7	-7,0
2,8345	4,5	-8,2
2,835	5,3	-7,7
2,8355	7,9	-5,5
2,836	10,9	-2,2
2,8365	13,0	1,1
2,837	13,7	4,0
2,8375	13,7	7,0
2,838	13,7	9,9
2,8385	13,9	12,5
2,839	14,3	14,6
2,8395	14,6	16,5
2,84	15,0	18,1
2,8405	15,5	19,1
2,841	16,0	19,6
2,8415	16,3	19,7
2,842	16,5	19,6
2,8425	16,4	19,2
2,843	16,0	18,3
2,8435	15,2	16,5
2,844	14,0	13,6
2,8445	13,3	10,7
2,845	13,7	8,7
2,8455	15,0	7,6
2,846	16,7	6,7
2,8465	17,9	5,6
2,847	18,7	4,3
2,8475	19,0	3,0
2,848	18,7	1,6
2,8485	17,7	0,1
2,849	16,1	-1,4
2,8495	14,0	-2,5
2,85	11,3	-3,1
2,8505	7,4	-3,2
2,851	2,1	-3,4
2,8515	-3,4	-3,4
2,852	-7,6	-2,5
2,8525	-9,3	-0,4
2,853	-8,9	2,6
2,8535	-7,4	6,0
2,854	-5,6	9,7
2,8545	-4,4	13,4
2,855	-4,2	16,1
2,8555	-4,8	17,3
2,856	-5,8	17,8
2,8565	-6,6	18,8
2,857	-6,7	21,3
2,8575	-6,1	24,7
2,858	-4,8	27,7
2,8585	-3,5	29,3
2,859	-2,7	29,1
2,8595	-3,0	27,1
2,86	-4,9	22,9
2,8605	-7,9	16,8
2,861	-10,3	10,3
2,8615	-10,6	5,6
2,862	-8,3	3,6
2,8625	-4,3	3,3
2,863	0,9	3,6
2,8635	6,3	3,5
2,864	11,0	2,4
2,8645	14,5	0,3
2,865	16,4	-2,7
2,8655	16,8	-5,9
2,866	16,5	-8,5
2,8665	17,0	-9,5
2,867	19,1	-8,6
2,8675	22,0	-6,6
2,868	23,9	-4,0
2,8685	23,8	-1,0
2,869	22,3	2,3
2,8695	20,2	5,4
2,87	18,3	7,7
2,8705	17,0	9,1
2,871	16,2	10,3
2,8715	15,8	11,8
2,872	15,3	13,5
2,8725	15,1	15,8
2,873	15,6	18,7
2,8735	17,3	22,1
2,874	20,3	25,5
2,8745	23,8	28,2
2,875	27,3	29,4
2,8755	29,6	29,0
2,876	30,6	27,1
2,8765	30,0	23,7
2,877	28,0	18,8
2,8775	24,8	13,2
2,878	20,9	8,2
2,8785	17,3	4,9
2,879	14,3	3,3
2,8795	12,4	2,4
2,88	12,0	1,7
2,8805	12,5	1,0
2,881	12,8	-0,0
2,8815	12,0	-1,5
2,882	9,6	-3,3
2,8825	6,2	-5,1
2,883	2,5	-6,0
2,8835	-0,3	-5,8
2,884	-1,8	-4,6
2,8845	-2,1	-3,1
2,885	-1,1	-1,7
2,8855	1,2	-0,3
2,886	4,5	1,1
2,8865	8,4	2,5
2,887	12,9	3,9
2,8875	17,8	5,9
2,888	22,8	8,4
2,8885	27,3	11,1
2,889	30,7	13,6
2,8895	32,8	16,2
2,89	33,8	18,8
2,8905	34,1	21,3
2,891	33,8	23,2
2,8915	32,9	24,3
2,892	31,5	24,5
2,8925	30,0	23,7
2,893	28,6	21,8
2,8935	27,1	18,7
2,894	25,1	14,3
2,8945	22,8	9,4
2,895	20,8	5,3
2,8955	19,6	2,7
2,896	19,0	1,4
2,8965	18,6	0,7
2,897	18,0	-0,7
2,8975	16,8	-3,8
2,898	14,6	-8,7
2,8985	11,2	-14,6
2,899	6,8	-19,7
2,8995	2,3	-22,8
2,9	-1,2	-23,6
2,9005	-2,8	-21,9
2,901	-2,6	-18,6
2,9015	-0,7	-14,0
2,902	2,1	-8,6
2,9025	5,0	-3,1
2,903	6,9	1,6
2,9035	7,0	4,9
2,904	5,2	7,3
2,9045	2,3	9,3
2,905	-0,9	11,3
2,9055	-4,0	13,0
2,906	-6,3	14,4
2,9065	-7,7	16,0
2,907	-7,8	18,2
2,9075	-6,4	20,9
2,908	-4,2	23,7
2,9085	-2,0	25,7
2,909	-0,5	26,3
2,9095	0,2	25,8
2,91	0,7	24,3
2,9105	1,2	22,1
2,911	2,5	19,5
2,9115	5,5	17,1
2,912	10,0	14,8
2,9125	14,8	12,3
2,913	18,3	9,1
2,9135	19,9	6,0
2,914	20,0	3,1
2,9145	19,7	0,3
2,915	19,2	-2,7
2,9155	18,2	-5,9
2,916	16,6	-8,7
2,9165	14,9	-10,3
2,917	13,4	-10,3
2,9175	12,4	-8,7
2,918	11,7	-6,0
2,9185	11,4	-2,4
2,919	11,5	2,0
2,9195	11,3	6,1
2,92	9,8	8,5
2,9205	7,2	8,8
2,921	4,1	8,3
2,9215	1,9	8,8
2,922	1,1	11,1
2,9225	1,4	15,0
2,923	2,6	19,3
2,9235	4,1	22,6
2,924	5,6	24,6
2,9245	6,7	25,3
2,925	7,4	24,8
2,9255	7,8	23,0
2,926	8,3	19,7
2,9265	9,0	15,0
2,927	9,7	9,7
2,9275	10,9	4,8
2,928	12,9	1,5
2,9285	15,8	-0,2
2,929	19,0	-0,8
2,9295	21,7	-1,2
2,93	23,2	-1,6
2,9305	23,3	-2,1
2,931	21,8	-3,3
2,9315	18,7	-5,3
2,932	14,9	-8,0
2,9325	11,3	-10,5
2,933	8,6	-11,5
2,9335	7,1	-10,6
2,934	7,1	-8,0
2,9345	8,5	-4,2
2,935	10,8	0,3
2,9355	13,3	5,1
2,936	15,1	8,9
2,9365	15,6	11,0
2,937	15,3	11,6
2,9375	15,0	11,8
2,938	15,5	12,5
2,9385	16,4	13,7
2,939	16,8	14,9
2,9395	16,3	16,2
2,94	15,5	17,8
2,9405	15,1	19,7
2,941	15,5	22,0
2,9415	16,4	24,2
2,942	16,6	25,9
2,9425	15,7	27,0
2,943	13,9	27,2
2,9435	11,9	26,3
2,944	9,9	24,3
2,9445	7,9	21,9
2,945	6,4	19,8
2,9455	5,4	17,6
2,946	5,0	14,2
2,9465	4,9	9,5
2,947	4,8	4,2
2,9475	4,3	-1,1
2,948	3,1	-6,5
2,9485	1,2	-11,8
2,949	-0,7	-16,3
2,9495	-2,1	-18,5
2,95	-2,0	-17,8
2,9505	0,4	-14,9
2,951	5,2	-10,9
2,9515	10,9	-6,7
2,952	15,9	-2,6
2,9525	19,0	1,2
2,953	20,1	3,9
2,9535	19,0	5,3
2,954	15,8	6,1
2,9545	11,4	7,4
2,955	6,8	9,5
2,9555	3,0	12,3
2,956	0,4	15,7
2,9565	-0,7	19,4
2,957	-0,4	23,0
2,9575	1,2	25,9
2,958	3,6	27,8
2,9585	6,3	28,8
2,959	8,6	28,9
2,9595	10,7	28,3
2,96	12,4	26,8
2,9605	13,7	23,9
2,961	14,5	20,1
2,9615	15,8	16,2
2,962	18,6	12,8
2,9625	22,8	10,2
2,963	27,1	7,8
2,9635	30,5	5,4
2,964	32,6	2,7
2,9645	33,3	-0,7
2,965	32,3	-4,8
2,9655	29,2	-9,2
2,966	24,0	-13,1
2,9665	17,7	-15,4
2,967	11,3	-15,7
2,9675	6,3	-14,0
2,968	3,4	-11,0
2,9685	2,5	-7,3
2,969	3,4	-3,3
2,9695	5,6	0,3
2,97	8,8	2,9
2,9705	12,9	5,1
2,971	17,8	7,3
2,9715	22,8	9,9
2,972	26,9	12,6
2,9725	29,6	15,2
2,973	31,3	17,9
2,9735	32,6	21,1
2,974	34,5	24,6
2,9745	37,1	27,5
2,975	39,9	28,8
2,9755	42,0	28,2
2,976	42,9	25,9
2,9765	42,2	22,2
2,977	39,8	17,6
2,9775	36,4	12,8
2,978	33,1	9,2
2,9785	31,0	7,5
2,979	29,7	7,3
2,9795	28,3	7,3
2,98	26,3	6,3
2,9805	23,9	3,9
2,981	21,1	0,4
2,9815	18,2	-3,4
2,982	15,3	-7,2
2,9825	12,6	-10,2
2,983	9,8	-11,8
2,9835	7,6	-11,6
2,984	6,2	-9,4
2,9845	6,0	-5,9
2,985	7,3	-1,5
2,9855	9,9	3,6
2,986	13,1	8,4
2,9865	15,8	11,8
2,987	17,3	13,6
2,9875	18,1	14,7
2,988	18,7	16,1
2,9885	19,5	18,2
2,989	20,3	20,7
2,9895	21,1	23,0
2,99	21,4	24,8
2,9905	21,2	25,6
2,991	20,9	25,8
2,9915	20,5	25,2
2,992	19,9	24,1
2,9925	19,4	22,5
2,993	19,3	20,4
2,9935	19,9	17,6
2,994	20,3	14,1
2,9945	20,2	10,6
2,995	19,3	7,6
2,9955	17,8	5,1
2,996	15,2	3,2
2,9965	11,8	1,6
2,997	8,4	0,6
2,9975	5,2	-0,2
2,998	2,0	-1,4
2,9985	-1,1	-3,3
2,999	-3,9	-5,2
2,9995	-6,0	-6,3
3	-6,8	-5,6
3,0005	-6,4	-3,0
3,001	-5,2	0,8
3,0015	-3,7	5,1
3,002	-1,9	9,4
3,0025	-0,3	13,3
3,003	1,1	16,0
3,0035	2,4	17,3
3,004	4,5	18,1
3,0045	7,7	18,9
3,005	11,2	20,0
3,0055	13,6	21,2
3,006	14,6	22,4
3,0065	15,2	23,6
3,007	16,1	24,4
3,0075	17,5	24,7
3,008	19,0	24,8
3,0085	20,2	25,0
3,009	20,8	25,0
3,0095	20,1	24,5
3,01	18,2	23,3
3,0105	15,6	21,3
3,011	13,7	19,1
3,0115	13,1	17,3
3,012	14,2	15,3
3,0125	16,2	12,3
3,013	18,2	7,7
3,0135	19,6	2,3
3,014	20,2	-2,8
3,0145	20,3	-6,7
3,015	19,7	-9,0
3,0155	18,5	-9,8
3,016	17,0	-9,0
3,0165	16,0	-7,1
3,017	16,2	-4,5
3,0175	17,8	-1,6
3,018	20,8	1,5
3,0185	24,5	5,0
3,019	27,6	8,5
3,0195	29,6	11,3
3,02	30,1	12,8
3,0205	29,6	13,1
3,021	28,3	12,5
3,0215	26,4	11,7
3,022	24,2	11,0
3,0225	22,5	11,4
3,023	21,8	13,6
3,0235	22,3	17,1
3,024	23,6	21,1
3,0245	25,0	24,3
3,025	25,7	26,0
3,0255	25,5	26,0
3,026	24,3	24,7
3,0265	22,9	22,7
3,027	21,4	20,4
3,0275	20,0	18,1
3,028	19,4	16,5
3,0285	19,6	15,7
3,029	20,1	15,0
3,0295	20,0	13,8
3,03	19,1	12,0
3,0305	17,6	10,0
3,031	15,9	8,1
3,0315	14,3	6,0
3,032	12,8	3,7
3,0325	11,1	1,5
3,033	8,7	-0,5
3,0335	5,7	-1,8
3,034	2,9	-2,1
3,0345	1,0	-1,4
3,035	0,2	0,3
3,0355	0,1	3,0
3,036	0,1	6,1
3,0365	-0,2	9,1
3,037	-0,4	11,6
3,0375	0,1	14,0
3,038	2,1	16,6
3,0385	5,3	19,2
3,039	8,4	21,8
3,0395	10,1	24,4
3,04	10,1	27,1
3,0405	9,8	29,5
3,041	10,8	31,1
3,0415	13,4	31,4
3,042	17,1	30,0
3,0425	20,1	27,0
3,043	21,4	22,8
3,0435	20,5	17,5
3,044	17,5	11,8
3,0445	13,8	7,0
3,045	11,2	4,3
3,0455	10,6	3,8
3,046	11,8	4,6
3,0465	14,3	5,4
3,047	17,8	5,6
3,0475	21,8	4,9
3,048	25,8	2,7
3,0485	28,7	-0,8
3,049	30,1	-4,9
3,0495	29,8	-8,3
3,05	28,0	-9,8
3,0505	25,7	-8,9
3,051	23,9	-6,1
3,0515	22,7	-2,3
3,052	21,4	1,8
3,0525	19,0	5,5
3,053	15,0	7,9
3,0535	9,6	8,9
3,054	4,0	9,1
3,0545	-0,6	9,5
3,055	-3,3	10,7
3,0555	-4,2	12,7
3,056	-3,7	15,6
3,0565	-1,7	19,4
3,057	1,3	23,5
3,0575	4,8	26,7
3,058	8,0	28,3
3,0585	10,5	28,1
3,059	12,5	27,1
3,0595	14,8	26,1
3,06	18,3	25,3
3,0605	23,0	24,2
3,061	27,9	22,6
3,0615	31,8	20,6
3,062	34,0	18,4
3,0625	34,7	15,6
3,063	34,0	12,1
3,0635	32,5	8,4
3,064	30,2	5,0
3,0645	26,9	1,3
3,065	22,5	-3,0
3,0655	17,1	-7,8
3,066	11,4	-12,1
3,0665	5,9	-14,5
3,067	1,2	-14,5
3,0675	-2,3	-12,0
3,068	-4,0	-7,9
3,0685	-3,7	-2,5
3,069	-1,8	3,3
3,0695	0,8	8,5
3,07	3,1	12,3
3,0705	4,8	14,7
3,071	6,1	16,3
3,0715	7,3	17,7
3,072	8,5	18,7
3,0725	9,7	19,5
3,073	11,3	20,4
3,0735	13,4	21,5
3,074	15,9	22,8
3,0745	18,6	23,5
3,075	20,9	23,4
3,0755	22,8	22,1
3,076	23,8	19,7
3,0765	24,4	16,6
3,077	24,9	13,1
3,0775	25,4	9,7
3,078	25,9	7,3
3,0785	26,2	6,3
3,079	25,8	6,4
3,0795	24,4	6,4
3,08	22,3	6,1
3,0805	20,0	5,2
3,081	17,5	3,4
3,0815	14,8	0,7
3,082	11,7	-2,4
3,0825	8,5	-5,1
3,083	6,1	-6,5
3,0835	5,1	-6,4
3,084	5,5	-4,7
3,0845	7,0	-1,4
3,085	9,2	3,4
3,0855	11,6	9,3
3,086	13,8	15,0
3,0865	15,5	19,4
3,087	16,2	22,1
3,0875	15,6	23,9
3,088	14,0	25,4
3,0885	12,0	27,2
3,089	10,2	29,3
3,0895	9,2	31,4
3,09	9,5	33,2
3,0905	10,9	33,9
3,091	12,7	33,4
3,0915	13,8	31,3
3,092	13,3	27,8
3,0925	11,3	23,1
3,093	8,6	17,5
3,0935	6,3	11,3
3,094	4,8	5,4
3,0945	4,4	1,1
3,095	5,3	-0,7
3,0955	7,3	-0,6
3,096	9,8	-0,1
3,0965	12,7	0,1
3,097	15,8	-0,1
3,0975	18,7	-0,8
3,098	20,3	-2,3
3,0985	20,8	-4,5
3,099	20,4	-6,9
3,0995	20,2	-8,4
3,1	20,4	-8,3
3,1005	21,3	-6,7
3,101	22,4	-4,2
3,1015	23,2	-1,5
3,102	23,1	1,5
3,1025	22,3	4,6
3,103	21,0	7,2
3,1035	19,6	9,2
3,104	18,4	10,8
3,1045	17,8	12,9
3,105	17,6	15,6
3,1055	17,6	18,9
3,106	17,6	22,5
3,1065	17,5	25,8
3,107	17,5	28,0
3,1075	17,6	29,1
3,108	18,0	29,3
3,1085	18,9	29,3
3,109	20,2	29,3
3,1095	21,7	29,1
3,11	22,8	28,1
3,1105	23,3	26,3
3,111	23,3	24,1
3,1115	22,5	22,2
3,112	20,7	20,2
3,1125	17,2	17,4
3,113	12,3	13,2
3,1135	7,6	8,7
3,114	4,4	5,1
3,1145	2,8	2,7
3,115	2,2	1,0
3,1155	1,7	-0,9
3,116	1,3	-3,0
3,1165	1,6	-5,4
3,117	3,0	-7,6
3,1175	5,1	-9,0
3,118	6,6	-8,9
3,1185	7,3	-6,7
3,119	7,8	-2,7
3,1195	8,8	2,0
3,12	10,4	6,2
3,1205	12,4	9,1
3,121	14,4	11,1
3,1215	16,0	12,2
3,122	16,5	12,6
3,1225	16,1	13,3
3,123	15,6	15,2
3,1235	15,5	18,3
3,124	16,0	22,0
3,1245	16,1	25,0
3,125	15,0	26,0
3,1255	12,4	25,1
3,126	9,0	22,7
3,1265	5,8	19,8
3,127	3,5	16,6
3,1275	2,1	13,7
3,128	1,8	11,8
3,1285	2,7	11,3
3,129	4,4	11,3
3,1295	6,3	10,8
3,13	7,5	9,2
3,1305	7,8	6,6
3,131	7,2	2,9
3,1315	5,7	-1,7
3,132	3,5	-6,8
3,1325	1,3	-11,4
3,133	0,1	-14,3
3,1335	0,3	-14,8
3,134	1,7	-13,2
3,1345	3,8	-10,0
3,135	5,9	-5,9
3,1355	7,7	-1,4
3,136	8,5	2,4
3,1365	7,4	4,9
3,137	4,4	6,1
3,1375	0,5	6,6
3,138	-3,3	7,3
3,1385	-6,6	8,5
3,139	-9,0	10,1
3,1395	-9,8	12,5
3,14	-8,9	15,5
3,1405	-7,1	19,0
3,141	-5,1	22,6
3,1415	-3,5	25,6
3,142	-2,3	27,8
3,1425	-1,0	28,9
3,143	0,7	29,1
3,1435	2,8	27,8
3,144	5,3	24,9
3,1445	9,0	21,4
3,145	14,2	18,1
3,1455	20,2	15,3
3,146	25,5	12,4
3,1465	28,6	9,2
3,147	28,9	5,5
3,1475	26,7	1,8
3,148	23,0	-1,7
3,1485	18,8	-4,8
3,149	14,7	-7,7
3,1495	11,2	-10,3
3,15	8,6	-12,3
3,1505	7,5	-13,1
3,151	7,8	-12,3
3,1515	9,2	-9,9
3,152	11,2	-6,1
3,1525	12,8	-1,7
3,153	13,6	2,3
3,1535	13,8	4,9
3,154	13,9	6,4
3,1545	13,8	7,6
3,155	13,2	9,1
3,1555	12,1	11,2
3,156	11,3	14,0
3,1565	11,6	17,4
3,157	13,0	20,8
3,1575	15,3	23,8
3,158	17,5	25,5
3,1585	19,0	25,7
3,159	19,3	24,3
3,1595	18,1	21,5
3,16	15,9	18,0
3,1605	13,0	14,1
3,161	10,0	10,2
3,1615	7,8	7,3
3,162	6,8	5,6
3,1625	6,7	4,7
3,163	7,0	3,9
3,1635	7,8	2,8
3,164	8,7	1,3
3,1645	9,3	-0,8
3,165	9,2	-3,2
3,1655	8,2	-5,5
3,166	6,6	-7,3
3,1665	4,7	-8,3
3,167	2,7	-8,5
3,1675	0,9	-7,7
3,168	0,1	-5,7
3,1685	0,7	-2,2
3,169	2,7	2,6
3,1695	5,3	8,1
3,17	7,3	13,2
3,1705	8,0	17,3
3,171	7,4	20,5
3,1715	5,7	23,1
3,172	3,5	25,2
3,1725	1,2	26,7
3,173	-0,7	27,7
3,1735	-1,9	28,4
3,174	-2,4	28,8
3,1745	-2,8	28,9
3,175	-3,3	28,2
3,1755	-4,1	26,1
3,176	-5,2	23,2
3,1765	-6,0	20,4
3,177	-6,8	18,2
3,1775	-7,5	16,6
3,178	-7,7	15,7
3,1785	-6,6	15,4
3,179	-4,5	15,5
3,1795	-2,0	14,7
3,18	0,3	12,8
3,1805	2,4	10,2
3,181	4,4	7,0
3,1815	5,8	3,4
3,182	6,0	-1,1
3,1825	4,8	-6,6
3,183	2,8	-12,4
3,1835	0,9	-16,9
3,184	0,1	-18,4
3,1845	0,3	-17,0
3,185	1,8	-13,1
3,1855	4,5	-7,7
3,186	7,4	-1,8
3,1865	9,5	3,2
3,187	10,1	6,6
3,1875	9,7	8,8
3,188	9,4	10,6
3,1885	10,1	12,9
3,189	11,8	15,9
3,1895	13,8	19,6
3,19	15,2	23,3
3,1905	15,8	26,1
3,191	15,8	27,4
3,1915	15,5	27,1
3,192	14,8	25,4
3,1925	13,4	22,7
3,193	11,0	19,3
3,1935	7,8	15,4
3,194	4,3	11,3
3,1945	1,1	7,7
3,195	-1,3	5,3
3,1955	-2,8	4,4
3,196	-3,7	4,3
3,1965	-4,0	4,0
3,197	-4,4	3,4
3,1975	-5,5	2,1
3,198	-7,8	0,1
3,1985	-10,8	-2,3
3,199	-13,7	-4,3
3,1995	-15,7	-5,5
3,2	-16,4	-5,3
3,2005	-16,0	-3,7
3,201	-14,7	-0,8
3,2015	-12,8	2,6
3,202	-10,9	5,8
3,2025	-9,8	7,9
3,203	-9,9	7,7
3,2035	-11,1	5,5
3,204	-12,2	3,0
3,2045	-12,3	2,1
3,205	-11,6	3,7
3,2055	-10,6	7,2
3,206	-9,2	12,0
3,2065	-7,2	17,1
3,207	-4,5	21,7
3,2075	-1,7	25,2
3,208	0,7	27,4
3,2085	2,5	28,3
3,209	3,8	28,1
3,2095	5,1	26,9
3,21	6,7	24,8
3,2105	8,6	21,7
3,211	10,1	17,5
3,2115	10,9	12,9
3,212	11,1	8,5
3,2125	10,3	4,6
3,213	8,7	1,3
3,2135	6,9	-1,1
3,214	6,1	-2,8
3,2145	6,3	-4,5
3,215	6,5	-6,5
3,2155	4,9	-8,8
3,216	1,2	-11,0
3,2165	-3,6	-12,1
3,217	-7,9	-11,8
3,2175	-10,8	-10,2
3,218	-11,5	-7,9
3,2185	-10,4	-5,0
3,219	-8,5	-1,6
3,2195	-7,2	1,7
3,22	-7,6	4,3
3,2205	-9,4	6,1
3,221	-11,3	7,9
3,2215	-12,2	10,2
3,222	-12,1	13,0
3,2225	-11,2	16,3
3,223	-9,4	20,5
3,2235	-6,3	25,2
3,224	-2,0	29,9
3,2245	2,5	33,5
3,225	6,1	34,7
3,2255	8,4	32,9
3,226	9,6	28,4
3,2265	10,1	22,7
3,227	9,9	16,5
3,2275	9,2	10,6
3,228	8,8	5,7
3,2285	9,6	2,2
3,229	11,4	-0,2
3,2295	13,5	-1,9
3,23	14,9	-3,5
3,2305	15,2	-5,1
3,231	13,8	-6,8
3,2315	11,0	-8,9
3,232	7,1	-11,2
3,2325	3,2	-13,4
3,233	0,2	-14,7
3,2335	-1,5	-14,6
3,234	-1,8	-13,3
3,2345	-1,1	-10,9
3,235	0,1	-7,6
3,2355	1,6	-3,7
3,236	2,8	0,3
3,2365	3,1	3,5
3,237	2,2	5,7
3,2375	0,5	7,5
3,238	-0,9	9,6
3,2385	-1,5	12,0
3,239	-1,3	14,4
3,2395	-0,4	16,8
3,24	1,1	19,0
3,2405	2,9	20,6
3,241	4,4	21,3
3,2415	5,1	21,2
3,242	4,6	20,3
3,2425	3,4	19,0
3,243	2,0	17,2
3,2435	0,7	15,0
3,244	-0,5	12,7
3,2445	-1,5	10,6
3,245	-1,9	9,3
3,2455	-1,3	8,3
3,246	0,1	6,9
3,2465	1,8	5,0
3,247	3,2	2,9
3,2475	4,0	0,5
3,248	4,0	-2,4
3,2485	3,3	-5,8
3,249	2,3	-9,2
3,2495	1,6	-11,8
3,25	1,4	-12,8
3,2505	1,5	-11,9
3,251	1,5	-9,5
3,2515	1,5	-6,2
3,252	2,1	-2,2
3,2525	3,9	2,6
3,253	6,6	7,5
3,2535	9,4	11,4
3,254	11,8	13,8
3,2545	13,3	14,7
3,255	13,8	14,5
3,2555	13,2	14,1
3,256	12,0	14,3
3,2565	10,7	15,7
3,257	9,8	17,7
3,2575	9,7	19,6
3,258	10,2	21,1
3,2585	11,0	22,5
3,259	11,6	23,6
3,2595	12,0	24,3
3,26	12,3	24,4
3,2605	12,3	23,6
3,261	12,3	22,0
3,2615	12,9	20,3
3,262	14,1	18,7
3,2625	15,2	17,0
3,263	15,5	14,7
3,2635	14,3	11,5
3,264	11,9	6,6
3,2645	8,1	-0,4
3,265	3,0	-9,1
3,2655	-2,1	-17,2
3,266	-6,2	-22,4
3,2665	-8,4	-24,3
3,267	-9,3	-23,8
3,2675	-9,3	-22,3
3,268	-9,2	-20,0
3,2685	-8,8	-16,5
3,269	-8,2	-11,7
3,2695	-7,7	-6,5
3,27	-7,2	-2,0
3,2705	-6,8	1,6
3,271	-6,4	4,6
3,2715	-6,2	7,5
3,272	-6,7	10,3
3,2725	-8,1	13,0
3,273	-10,4	15,4
3,2735	-13,0	17,6
3,274	-15,0	19,3
3,2745	-15,9	20,1
3,275	-15,8	20,2
3,2755	-15,3	19,3
3,276	-14,9	17,7
3,2765	-14,9	15,6
3,277	-15,3	12,8
3,2775	-15,7	9,6
3,278	-15,2	6,9
3,2785	-13,5	5,4
3,279	-10,9	4,8
3,2795	-8,4	4,5
3,28	-6,2	3,8
3,2805	-4,0	2,7
3,281	-1,3	1,3
3,2815	1,4	-0,3
3,282	2,9	-2,3
3,2825	2,7	-4,8
3,283	1,3	-7,5
3,2835	-0,1	-9,6
3,284	-0,3	-9,9
3,2845	1,2	-7,7
3,285	4,0	-2,9
3,2855	7,5	3,7
3,286	10,1	10,6
3,2865	10,8	15,9
3,287	9,8	19,0
3,2875	8,0	20,1
3,288	6,4	20,5
3,2885	5,6	21,0
3,289	5,8	22,0
3,2895	7,4	23,4
3,29	10,3	24,7
3,2905	13,4	24,8
3,291	15,5	22,8
3,2915	15,9	19,4
3,292	14,6	15,5
3,2925	12,0	12,1
3,293	9,0	9,3
3,2935	7,0	6,9
3,294	6,2	4,4
3,2945	5,6	1,9
3,295	3,7	-0,1
3,2955	-0,2	-1,8
3,296	-5,0	-3,4
3,2965	-9,4	-4,8
3,297	-12,6	-5,7
3,2975	-14,1	-6,0
3,298	-14,2	-6,5
3,2985	-13,5	-7,7
3,299	-12,8	-9,9
3,2995	-12,4	-12,7
3,3	-12,3	-15,1
3,3005	-11,8	-16,3
3,301	-9,0	-15,2
3,3015	-2,5	-11,8
3,302	7,2	-6,9
3,3025	17,5	-2,1
3,303	25,7	1,5
3,3035	30,2	3,7
3,304	31,2	5,2
3,3045	29,9	6,9
3,305	27,6	8,7
3,3055	24,8	10,3
3,306	22,2	11,9
3,3065	20,3	13,8
3,307	19,6	16,3
3,3075	20,0	19,1
3,308	21,1	21,6
3,3085	22,0	23,2
3,309	22,2	23,4
3,3095	21,6	22,3
3,31	20,3	20,0
3,3105	18,6	16,7
3,311	17,3	12,9
3,3115	17,1	9,7
3,312	17,7	7,4
3,3125	17,8	5,7
3,313	16,3	3,8
3,3135	12,8	1,1
3,314	8,4	-2,1
3,3145	4,2	-5,6
3,315	0,8	-8,8
3,3155	-1,7	-11,3
3,316	-3,2	-12,6
3,3165	-3,7	-12,6
3,317	-3,4	-11,0
3,3175	-2,3	-8,2
3,318	-0,6	-4,5
3,3185	1,7	-0,5
3,319	4,5	3,7
3,3195	7,5	7,5
3,32	10,3	10,3
3,3205	13,3	12,2
3,321	17,3	13,7
3,3215	22,2	15,3
3,322	26,7	16,5
3,3225	29,7	17,4
3,323	30,9	18,1
3,3235	30,9	19,0
3,324	30,6	20,3
3,3245	30,7	21,8
3,325	31,5	22,7
3,3255	32,3	22,1
3,326	32,1	19,8
3,3265	30,1	16,0
3,327	26,4	11,0
3,3275	21,8	5,8
3,328	17,6	1,9
3,3285	14,8	-0,3
3,329	13,5	-1,0
3,3295	13,0	-1,1
3,33	13,1	-0,8
3,3305	13,3	-0,5
3,331	13,5	-0,4
3,3315	13,1	-1,4
3,332	12,0	-3,3
3,3325	10,3	-5,5
3,333	8,5	-7,1
3,3335	6,9	-7,9
3,334	6,1	-7,6
3,3345	6,3	-6,3
3,335	7,7	-3,9
3,3355	9,8	-1,1
3,336	12,1	1,4
3,3365	14,0	2,8
3,337	15,4	3,7
3,3375	16,4	4,9
3,338	17,4	7,0
3,3385	18,2	9,9
3,339	18,8	13,3
3,3395	19,5	17,3
3,34	20,8	21,7
3,3405	23,1	26,4
3,341	26,4	30,8
3,3415	30,3	34,6
3,342	33,7	36,9
3,3425	35,0	37,0
3,343	33,4	34,0
3,3435	28,5	27,6
3,344	21,0	18,9
3,3445	12,7	10,3
3,345	6,0	4,4
3,3455	2,5	1,6
3,346	1,7	0,8
3,3465	2,3	-0,0
3,347	2,9	-1,8
3,3475	2,6	-5,1
3,348	1,3	-9,6
3,3485	-0,5	-13,9
3,349	-2,0	-16,7
3,3495	-2,2	-17,0
3,35	-0,8	-15,1
3,3505	2,1	-11,9
3,351	5,6	-8,4
3,3515	8,9	-5,6
3,352	11,6	-4,0
3,3525	13,3	-3,6
3,353	13,5	-4,3
3,3535	12,0	-5,4
3,354	9,5	-6,0
3,3545	6,6	-5,3
3,355	3,8	-3,0
3,3555	1,5	0,4
3,356	-0,3	4,7
3,3565	-1,0	9,4
3,357	-0,6	13,9
3,3575	0,7	17,8
3,358	2,5	20,3
3,3585	4,2	21,4
3,359	5,3	20,8
3,3595	5,7	18,8
3,36	5,3	16,0
3,3605	4,1	12,3
3,361	2,7	8,4
3,3615	1,8	5,1
3,362	1,8	3,0
3,3625	2,5	1,8
3,363	3,8	0,7
3,3635	5,2	-0,6
3,364	6,6	-2,0
3,3645	7,2	-3,8
3,365	5,7	-6,0
3,3655	1,5	-8,5
3,366	-4,8	-10,7
3,3665	-11,3	-11,8
3,367	-16,6	-11,3
3,3675	-20,1	-9,2
3,368	-22,1	-6,1
3,3685	-22,9	-2,1
3,369	-22,3	2,3
3,3695	-20,3	6,7
3,37	-17,3	10,3
3,3705	-13,7	13,2
3,371	-10,0	15,7
3,3715	-6,7	18,3
3,372	-4,3	20,8
3,3725	-2,6	23,3
3,373	-0,5	26,1
3,3735	3,2	29,4
3,374	8,7	32,5
3,3745	15,3	34,3
3,375	21,1	33,5
3,3755	24,6	29,8
3,376	24,5	24,2
3,3765	20,9	18,0
3,377	15,0	12,4
3,3775	8,7	8,1
3,378	3,8	5,6
3,3785	1,6	4,9
3,379	1,6	5,1
3,3795	3,1	5,1
3,38	6,0	4,4
3,3805	10,9	3,3
3,381	17,2	1,6
3,3815	22,7	-0,8
3,382	24,5	-4,2
3,3825	21,7	-8,4
3,383	15,7	-12,4
3,3835	9,4	-15,3
3,384	5,3	-16,3
3,3845	4,3	-15,5
3,385	5,4	-12,8
3,3855	7,3	-8,4
3,386	8,9	-3,4
3,3865	9,2	0,8
3,387	7,9	3,6
3,3875	5,3	5,7
3,388	1,8	7,7
3,3885	-2,5	10,0
3,389	-7,3	12,5
3,3895	-11,8	15,2
3,39	-14,9	17,8
3,3905	-16,5	19,8
3,391	-16,7	20,8
3,3915	-16,4	20,7
3,392	-16,0	19,7
3,3925	-15,5	18,0
3,393	-14,9	15,8
3,3935	-14,3	13,1
3,394	-13,4	10,0
3,3945	-11,8	7,0
3,395	-9,0	4,7
3,3955	-4,9	3,4
3,396	-0,2	2,5
3,3965	4,9	1,5
3,397	10,7	0,1
3,3975	16,7	-2,0
3,398	21,7	-4,8
3,3985	24,1	-8,0
3,399	23,2	-11,1
3,3995	19,9	-13,6
3,4	15,4	-15,0
3,4005	11,1	-15,3
3,401	7,7	-14,8
3,4015	5,8	-13,8
3,402	5,8	-11,7
3,4025	7,6	-8,4
3,403	10,5	-4,5
3,4035	13,5	-0,8
3,404	16,4	2,3
3,4045	19,8	5,4
3,405	23,4	8,7
3,4055	26,3	11,9
3,406	27,8	14,9
3,4065	27,8	18,1
3,407	26,8	21,3
3,4075	25,9	24,2
3,408	25,1	25,9
3,4085	24,3	25,8
3,409	23,3	24,2
3,4095	21,8	21,8
3,41	19,9	19,2
3,4105	17,7	16,3
3,411	15,1	13,2
3,4115	12,6	10,6
3,412	11,0	8,9
3,4125	10,2	7,6
3,413	10,1	6,0
3,4135	10,3	3,9
3,414	10,8	1,4
3,4145	11,1	-1,7
3,415	10,5	-5,8
3,4155	8,8	-10,5
3,416	6,2	-14,7
3,4165	3,2	-17,2
3,417	0,3	-17,3
3,4175	-2,1	-15,4
3,418	-3,2	-12,2
3,4185	-2,8	-8,3
3,419	-1,4	-4,2
3,4195	0,7	-0,3
3,42	2,5	2,9
3,4205	3,8	5,2
3,421	4,8	7,3
3,4215	5,7	9,4
3,422	6,3	11,7
3,4225	6,8	14,0
3,423	7,2	16,3
3,4235	8,0	18,6
3,424	9,4	20,8
3,4245	11,7	22,5
3,425	14,5	23,5
3,4255	17,2	23,5
3,426	19,0	22,6
3,4265	19,4	20,8
3,427	18,5	18,3
3,4275	16,3	15,5
3,428	13,2	12,7
3,4285	9,7	10,0
3,429	6,3	7,2
3,4295	3,4	4,2
3,43	0,9	1,2
3,4305	-1,0	-1,3
3,431	-2,8	-3,1
3,4315	-4,6	-5,0
3,432	-6,7	-7,3
3,4325	-9,1	-10,0
3,433	-11,6	-12,3
3,4335	-13,8	-13,6
3,434	-15,1	-13,4
3,4345	-15,7	-11,9
3,435	-15,6	-9,5
3,4355	-14,9	-6,3
3,436	-13,6	-3,0
3,4365	-12,1	-0,3
3,437	-10,9	1,4
3,4375	-9,5	2,5
3,438	-7,6	3,6
3,4385	-4,9	5,6
3,439	-1,6	8,4
3,4395	2,1	12,1
3,44	5,8	16,4
3,4405	9,6	20,9
3,441	13,3	25,2
3,4415	16,5	28,7
3,442	18,8	30,8
3,4425	19,9	31,5
3,443	20,4	31,0
3,4435	20,3	29,1
3,444	19,2	25,5
3,4445	16,1	20,3
3,445	11,3	14,2
3,4455	5,9	8,5
3,446	1,3	3,8
3,4465	-2,2	0,2
3,447	-4,9	-2,9
3,4475	-7,1	-6,2
3,448	-9,0	-9,7
3,4485	-10,4	-12,5
3,449	-11,0	-13,5
3,4495	-10,5	-12,6
3,45	-8,9	-10,3
3,4505	-6,7	-7,4
3,451	-4,0	-4,7
3,4515	-1,0	-2,1
3,452	2,2	0,7
3,4525	4,9	3,6
3,453	6,5	5,9
3,4535	6,4	6,8
3,454	4,7	6,7
3,4545	2,0	6,1
3,455	-0,7	5,4
3,4555	-3,2	4,9
3,456	-5,2	4,9
3,4565	-6,4	6,2
3,457	-6,3	8,8
3,4575	-5,0	12,2
3,458	-2,9	15,3
3,4585	-0,7	17,3
3,459	1,3	18,2
3,4595	3,1	18,0
3,46	4,8	17,0
3,4605	6,3	15,0
3,461	7,6	12,2
3,4615	8,7	9,3
3,462	9,5	6,9
3,4625	9,6	5,1
3,463	8,8	3,6
3,4635	7,2	2,3
3,464	5,4	1,3
3,4645	3,3	-0,1
3,465	0,4	-2,3
3,4655	-3,1	-5,5
3,466	-6,9	-8,9
3,4665	-10,4	-11,1
3,467	-13,1	-11,6
3,4675	-14,6	-10,6
3,468	-14,9	-8,5
3,4685	-13,9	-5,6
3,469	-11,7	-1,8
3,4695	-8,8	2,1
3,47	-6,1	5,4
3,4705	-4,0	7,9
3,471	-2,9	10,1
3,4715	-2,8	12,4
3,472	-3,4	14,8
3,4725	-4,2	17,1
3,473	-4,3	19,9
3,4735	-3,5	23,3
3,474	-1,5	27,1
3,4745	1,3	30,5
3,475	4,3	32,6
3,4755	6,1	32,5
3,476	5,8	30,0
3,4765	3,8	25,5
3,477	1,0	19,9
3,4775	-1,4	13,9
3,478	-3,1	8,7
3,4785	-3,6	4,6
3,479	-2,9	1,6
3,4795	-1,1	-0,7
3,48	1,5	-2,3
3,4805	4,1	-3,1
3,481	5,6	-3,5
3,4815	5,2	-4,1
3,482	3,3	-4,9
3,4825	0,9	-5,7
3,483	-1,0	-5,8
3,4835	-1,0	-5,0
3,484	1,6	-2,9
3,4845	5,7	-0,3
3,485	8,9	2,4
3,4855	9,7	4,9
3,486	8,0	7,1
3,4865	4,8	8,2
3,487	1,0	8,1
3,4875	-2,6	7,4
3,488	-5,4	6,9
3,4885	-7,7	6,9
3,489	-9,6	7,4
3,4895	-10,9	8,7
3,49	-11,0	11,2
3,4905	-9,5	14,8
3,491	-6,8	18,8
3,4915	-3,8	22,1
3,492	-1,2	23,9
3,4925	0,5	23,8
3,493	1,7	22,0
3,4935	2,4	18,8
3,494	2,4	14,7
3,4945	1,3	10,7
3,495	-0,7	8,1
3,4955	-2,7	6,8
3,496	-4,4	6,0
3,4965	-5,8	4,6
3,497	-6,8	2,4
3,4975	-7,9	-0,1
3,498	-9,3	-3,0
3,4985	-11,0	-6,1
3,499	-12,8	-9,3
3,4995	-14,1	-11,9
3,5	-14,2	-13,1
