Interval=	0,0005 s
ExcelDateTime=	4,5911454436374886e+004	11/09/2025 10:54:23,30279
TimeFormat=	StartOfBlock
DateFormat=	
ChannelTitle=	Biceps	Triceps
Range=	1000,0 µV	1000,0 µV
0	0,0	0,0
0,0005	0,2	0,3
0,001	0,8	1,3
0,0015	1,8	3,0
0,002	3,0	4,5
0,0025	4,1	4,8
0,003	5,3	3,4
0,0035	6,5	1,3
0,004	7,8	-0,4
0,0045	8,9	-1,2
0,005	9,9	-1,0
0,0055	10,0	0,0
0,006	8,8	1,9
0,0065	6,4	4,1
0,007	3,1	6,0
0,0075	-0,1	6,9
0,008	-2,9	6,6
0,0085	-5,0	5,4
0,009	-6,3	4,0
0,0095	-6,8	3,2
0,01	-6,3	3,3
0,0105	-5,2	4,2
0,011	-4,1	5,6
0,0115	-3,6	6,9
0,012	-3,8	7,8
0,0125	-4,3	8,2
0,013	-4,5	8,6
0,0135	-4,2	9,1
0,014	-3,4	9,1
0,0145	-2,6	8,0
0,015	-2,0	5,3
0,0155	-2,0	1,3
0,016	-2,7	-2,8
0,0165	-3,6	-6,1
0,017	-4,4	-7,8
0,0175	-4,9	-8,2
0,018	-4,8	-7,7
0,0185	-4,2	-7,3
0,019	-3,6	-8,1
0,0195	-3,3	-10,5
0,02	-3,5	-13,9
0,0205	-3,9	-17,1
0,021	-4,2	-19,1
0,0215	-3,7	-19,3
0,022	-2,6	-17,8
0,0225	-1,0	-15,2
0,023	0,8	-11,6
0,0235	2,4	-7,3
0,024	3,4	-3,4
0,0245	3,8	-0,9
0,025	3,6	-0,2
0,0255	2,9	-0,7
0,026	2,5	-1,8
0,0265	2,6	-2,8
0,027	3,2	-3,3
0,0275	3,8	-3,1
0,028	4,1	-1,9
0,0285	4,1	-0,5
0,029	3,8	0,7
0,0295	3,3	1,3
0,03	2,6	1,4
0,0305	1,8	0,9
0,031	1,3	-0,2
0,0315	1,0	-2,2
0,032	1,1	-4,5
0,0325	1,3	-6,6
0,033	1,4	-7,8
0,0335	1,3	-8,0
0,034	1,0	-7,6
0,0345	0,3	-6,9
0,035	-0,4	-6,3
0,0355	-0,5	-6,2
0,036	0,7	-7,2
0,0365	3,4	-8,6
0,037	7,0	-9,9
0,0375	10,2	-10,6
0,038	12,3	-11,2
0,0385	12,6	-12,1
0,039	10,9	-13,3
0,0395	7,5	-14,4
0,04	3,7	-14,7
0,0405	0,4	-14,1
0,041	-1,7	-13,1
0,0415	-2,7	-11,9
0,042	-3,1	-10,6
0,0425	-3,2	-8,7
0,043	-3,0	-6,3
0,0435	-2,8	-3,2
0,044	-2,8	0,7
0,0445	-3,0	5,4
0,045	-3,3	10,6
0,0455	-3,9	15,0
0,046	-4,8	17,5
0,0465	-6,0	17,6
0,047	-7,2	15,9
0,0475	-8,0	12,8
0,048	-8,2	8,7
0,0485	-8,0	3,6
0,049	-7,8	-2,3
0,0495	-8,1	-8,4
0,05	-9,0	-14,5
0,0505	-10,4	-19,9
0,051	-11,6	-23,8
0,0515	-11,8	-25,7
0,052	-10,7	-26,2
0,0525	-8,5	-26,0
0,053	-5,8	-25,7
0,0535	-2,9	-25,2
0,054	-0,3	-24,5
0,0545	1,4	-23,9
0,055	2,3	-23,5
0,0555	2,4	-22,9
0,056	2,4	-21,8
0,0565	2,7	-19,6
0,057	3,4	-16,4
0,0575	4,4	-13,0
0,058	5,3	-10,7
0,0585	5,6	-9,8
0,059	5,5	-10,1
0,0595	5,2	-11,0
0,06	4,9	-11,9
0,0605	4,7	-12,2
0,061	4,6	-11,3
0,0615	4,9	-9,3
0,062	5,7	-6,7
0,0625	7,0	-4,4
0,063	8,6	-2,8
0,0635	10,3	-1,9
0,064	12,2	-1,6
0,0645	14,0	-2,0
0,065	15,8	-3,2
0,0655	17,2	-5,0
0,066	17,6	-6,9
0,0665	16,9	-8,2
0,067	15,4	-8,6
0,0675	13,6	-8,3
0,068	11,9	-7,5
0,0685	10,6	-6,6
0,069	10,1	-6,4
0,0695	10,3	-7,5
0,07	10,9	-9,8
0,0705	11,3	-12,6
0,071	11,1	-15,6
0,0715	10,3	-18,3
0,072	9,0	-20,2
0,0725	7,7	-20,7
0,073	6,5	-19,8
0,0735	5,3	-17,9
0,074	4,3	-15,8
0,0745	3,3	-14,6
0,075	2,4	-14,4
0,0755	1,7	-14,8
0,076	1,3	-15,2
0,0765	1,4	-15,3
0,077	1,5	-15,1
0,0775	1,0	-14,6
0,078	-0,4	-13,6
0,0785	-2,5	-12,2
0,079	-4,9	-10,9
0,0795	-6,8	-10,0
0,08	-7,9	-9,6
0,0805	-7,9	-9,8
0,081	-6,6	-10,7
0,0815	-4,4	-12,4
0,082	-2,1	-14,7
0,0825	-0,6	-16,9
0,083	-0,1	-18,4
0,0835	0,1	-18,8
0,084	0,9	-18,0
0,0845	2,8	-16,4
0,085	5,4	-14,4
0,0855	8,3	-12,5
0,086	10,9	-11,4
0,0865	13,1	-11,0
0,087	14,6	-11,3
0,0875	15,5	-11,8
0,088	15,8	-12,3
0,0885	15,6	-12,6
0,089	14,9	-12,3
0,0895	13,8	-11,1
0,09	12,2	-9,2
0,0905	10,1	-7,0
0,091	7,7	-5,5
0,0915	5,4	-5,0
0,092	3,7	-5,8
0,0925	2,6	-7,2
0,093	2,2	-8,7
0,0935	2,2	-9,8
0,094	1,9	-10,3
0,0945	0,9	-10,2
0,095	-0,4	-9,5
0,0955	-1,6	-8,5
0,096	-1,9	-7,2
0,0965	-1,5	-5,7
0,097	-0,7	-4,3
0,0975	0,1	-3,2
0,098	0,8	-2,7
0,0985	1,7	-2,6
0,099	2,7	-2,2
0,0995	3,8	-0,8
0,1	5,0	1,6
0,1005	6,3	4,3
0,101	7,6	6,3
0,1015	8,3	6,8
0,102	8,3	5,8
0,1025	8,1	3,2
0,103	7,8	-0,5
0,1035	7,6	-4,8
0,104	7,2	-8,8
0,1045	6,4	-12,3
0,105	5,3	-15,2
0,1055	4,2	-17,5
0,106	3,1	-18,8
0,1065	1,9	-19,0
0,107	0,1	-18,8
0,1075	-2,5	-18,9
0,108	-5,2	-19,3
0,1085	-6,9	-19,6
0,109	-7,0	-18,9
0,1095	-5,3	-17,0
0,11	-2,5	-13,7
0,1105	0,5	-9,3
0,111	3,1	-4,3
0,1115	4,7	0,6
0,112	5,1	4,4
0,1125	4,5	6,6
0,113	3,6	7,3
0,1135	2,8	7,1
0,114	2,7	6,8
0,1145	3,5	6,8
0,115	5,1	6,9
0,1155	6,8	7,0
0,116	7,7	7,4
0,1165	7,6	8,2
0,117	6,7	9,2
0,1175	5,3	9,7
0,118	3,4	9,3
0,1185	1,3	7,8
0,119	-0,7	5,3
0,1195	-1,9	1,7
0,12	-2,1	-2,4
0,1205	-1,5	-6,6
0,121	-0,7	-10,6
0,1215	-0,2	-14,1
0,122	-0,4	-17,0
0,1225	-1,5	-18,5
0,123	-2,8	-17,9
0,1235	-3,7	-15,5
0,124	-3,8	-12,0
0,1245	-3,0	-8,6
0,125	-1,4	-6,3
0,1255	0,7	-5,3
0,126	3,0	-5,0
0,1265	5,3	-4,9
0,127	7,1	-4,8
0,1275	7,7	-4,5
0,128	7,0	-3,6
0,1285	5,4	-1,8
0,129	3,9	0,5
0,1295	3,0	2,9
0,13	2,7	5,3
0,1305	2,8	7,2
0,131	3,1	8,2
0,1315	3,1	7,7
0,132	2,5	5,8
0,1325	1,3	3,2
0,133	-0,1	0,8
0,1335	-1,3	-0,8
0,134	-1,9	-1,8
0,1345	-2,1	-2,6
0,135	-2,3	-3,2
0,1355	-2,2	-4,2
0,136	-1,9	-5,9
0,1365	-1,4	-8,1
0,137	-1,2	-10,2
0,1375	-1,1	-11,8
0,138	-0,8	-12,4
0,1385	0,3	-11,6
0,139	2,0	-9,3
0,1395	3,2	-6,2
0,14	2,7	-3,1
0,1405	0,2	-0,9
0,141	-3,6	0,0
0,1415	-7,2	-0,3
0,142	-10,0	-1,3
0,1425	-11,8	-2,6
0,143	-12,6	-3,7
0,1435	-12,8	-4,1
0,144	-12,8	-3,3
0,1445	-13,2	-1,2
0,145	-13,9	1,7
0,1455	-14,9	4,5
0,146	-15,8	6,5
0,1465	-16,6	8,1
0,147	-16,9	9,3
0,1475	-16,4	9,8
0,148	-15,0	9,4
0,1485	-13,1	8,1
0,149	-11,3	6,4
0,1495	-10,2	4,8
0,15	-9,8	3,5
0,1505	-9,9	2,7
0,151	-10,4	2,5
0,1515	-10,5	2,9
0,152	-9,8	3,6
0,1525	-7,6	4,1
0,153	-4,3	3,7
0,1535	-0,6	2,4
0,154	2,8	0,5
0,1545	5,8	-1,4
0,155	8,3	-3,0
0,1555	10,1	-3,7
0,156	11,0	-3,1
0,1565	10,9	-1,1
0,157	10,2	1,5
0,1575	9,8	4,0
0,158	10,1	6,0
0,1585	11,2	7,2
0,159	12,4	7,5
0,1595	13,3	7,0
0,16	13,6	5,9
0,1605	12,9	5,1
0,161	11,3	5,2
0,1615	8,6	6,2
0,162	5,2	7,7
0,1625	1,8	9,0
0,163	-1,1	10,1
0,1635	-3,0	10,9
0,164	-3,4	11,4
0,1645	-2,4	11,1
0,165	-0,4	10,1
0,1655	1,8	8,8
0,166	3,8	7,6
0,1665	5,3	6,9
0,167	6,3	6,7
0,1675	6,4	6,9
0,168	5,6	7,2
0,1685	4,1	7,4
0,169	2,8	7,3
0,1695	2,2	6,8
0,17	2,3	5,7
0,1705	2,7	4,3
0,171	3,2	3,4
0,1715	3,9	3,1
0,172	4,7	3,7
0,1725	5,2	5,1
0,173	5,0	7,3
0,1735	4,0	9,7
0,174	2,7	11,6
0,1745	1,7	12,2
0,175	1,3	11,3
0,1755	1,4	9,1
0,176	1,9	6,8
0,1765	2,8	4,9
0,177	3,6	3,8
0,1775	4,0	3,7
0,178	3,7	4,3
0,1785	2,5	4,9
0,179	0,8	5,1
0,1795	-1,1	4,6
0,18	-2,7	4,0
0,1805	-3,7	3,7
0,181	-3,9	3,5
0,1815	-3,0	3,3
0,182	-1,6	2,4
0,1825	-0,2	1,3
0,183	0,9	0,3
0,1835	1,4	-0,1
0,184	1,6	0,1
0,1845	1,6	0,7
0,185	1,6	1,3
0,1855	1,9	1,8
0,186	2,8	1,7
0,1865	4,2	0,8
0,187	5,6	-0,8
0,1875	6,4	-2,8
0,188	6,1	-4,7
0,1885	4,6	-6,2
0,189	1,9	-7,0
0,1895	-1,3	-6,5
0,19	-4,3	-4,8
0,1905	-6,6	-2,3
0,191	-8,1	-0,0
0,1915	-9,0	1,3
0,192	-9,4	1,8
0,1925	-9,4	1,7
0,193	-8,7	1,8
0,1935	-7,4	2,2
0,194	-6,0	3,3
0,1945	-5,3	4,8
0,195	-5,3	6,3
0,1955	-6,1	7,7
0,196	-7,2	8,6
0,1965	-7,8	9,4
0,197	-7,6	10,7
0,1975	-5,9	12,3
0,198	-2,6	14,1
0,1985	1,9	15,5
0,199	7,1	16,3
0,1995	12,1	16,8
0,2	15,8	16,8
0,2005	17,5	16,0
0,201	16,5	14,0
0,2015	13,2	10,8
0,202	9,1	7,3
0,2025	5,7	3,8
0,203	3,8	0,5
0,2035	2,8	-3,0
0,204	1,9	-6,9
0,2045	0,4	-11,1
0,205	-1,7	-14,5
0,2055	-3,7	-15,8
0,206	-5,0	-14,1
0,2065	-5,8	-9,9
0,207	-6,3	-4,7
0,2075	-6,8	-0,3
0,208	-7,1	2,6
0,2085	-6,9	4,1
0,209	-6,2	5,2
0,2095	-4,8	6,0
0,21	-3,4	6,8
0,2105	-2,3	7,6
0,211	-1,7	8,8
0,2115	-1,4	10,7
0,212	-1,2	13,0
0,2125	-0,8	15,4
0,213	-0,0	17,9
0,2135	1,2	20,2
0,214	2,8	21,8
0,2145	4,6	22,0
0,215	6,3	19,9
0,2155	7,4	15,8
0,216	7,4	10,5
0,2165	6,0	5,6
0,217	3,7	2,1
0,2175	1,2	0,6
0,218	-0,3	1,0
0,2185	-0,6	2,5
0,219	0,5	4,2
0,2195	2,5	5,1
0,22	4,8	5,1
0,2205	6,4	4,5
0,221	7,1	3,7
0,2215	6,8	2,7
0,222	5,2	1,1
0,2225	2,4	-0,7
0,223	-0,9	-2,3
0,2235	-4,2	-3,1
0,224	-6,6	-3,4
0,2245	-7,8	-4,0
0,225	-8,4	-4,9
0,2255	-8,3	-5,8
0,226	-7,9	-6,2
0,2265	-6,9	-5,8
0,227	-5,8	-4,5
0,2275	-4,8	-2,3
0,228	-4,4	0,7
0,2285	-4,5	3,8
0,229	-5,0	6,2
0,2295	-5,7	7,7
0,23	-6,3	8,3
0,2305	-6,4	8,1
0,231	-5,9	7,5
0,2315	-4,6	6,7
0,232	-2,8	5,7
0,2325	-1,0	4,7
0,233	0,4	3,9
0,2335	1,3	3,6
0,234	1,6	3,8
0,2345	1,3	4,2
0,235	0,4	4,5
0,2355	-0,9	4,2
0,236	-2,1	2,8
0,2365	-2,6	0,5
0,237	-2,3	-1,8
0,2375	-1,9	-3,3
0,238	-2,1	-4,3
0,2385	-3,6	-5,4
0,239	-6,3	-6,5
0,2395	-9,4	-6,8
0,24	-12,4	-5,8
0,2405	-14,5	-3,9
0,241	-15,6	-2,2
0,2415	-16,3	-1,5
0,242	-17,1	-1,8
0,2425	-17,8	-2,8
0,243	-18,2	-3,5
0,2435	-17,8	-3,6
0,244	-16,8	-2,6
0,2445	-15,3	-0,1
0,245	-13,1	3,9
0,2455	-10,5	8,5
0,246	-7,8	12,4
0,2465	-5,2	15,1
0,247	-3,0	16,5
0,2475	-1,3	16,7
0,248	0,4	15,9
0,2485	2,2	14,3
0,249	3,8	12,0
0,2495	4,4	9,6
0,25	3,8	7,5
0,2505	2,3	5,8
0,251	0,7	4,6
0,2515	-0,1	4,2
0,252	0,1	4,6
0,2525	1,3	5,1
0,253	2,8	4,8
0,2535	3,6	3,5
0,254	3,2	1,4
0,2545	1,9	-1,1
0,255	0,3	-3,5
0,2555	-1,3	-5,4
0,256	-2,9	-6,1
0,2565	-4,4	-5,1
0,257	-5,8	-2,8
0,2575	-7,0	0,2
0,258	-8,2	2,4
0,2585	-9,2	3,4
0,259	-10,0	3,3
0,2595	-10,4	2,4
0,26	-10,4	1,6
0,2605	-10,2	1,4
0,261	-10,5	2,0
0,2615	-11,7	3,1
0,262	-13,7	4,3
0,2625	-16,3	5,0
0,263	-18,9	5,4
0,2635	-21,0	5,7
0,264	-22,0	5,9
0,2645	-21,5	5,8
0,265	-19,5	4,8
0,2655	-16,8	3,4
0,266	-14,3	2,5
0,2665	-13,0	2,4
0,267	-13,0	3,2
0,2675	-13,8	4,6
0,268	-14,2	6,4
0,2685	-13,8	8,2
0,269	-12,3	9,5
0,2695	-10,3	9,4
0,27	-8,5	7,9
0,2705	-7,1	5,7
0,271	-6,3	3,4
0,2715	-6,0	1,4
0,272	-6,8	-0,6
0,2725	-9,4	-3,0
0,273	-13,8	-6,2
0,2735	-19,2	-9,2
0,274	-23,8	-10,9
0,2745	-26,2	-10,6
0,275	-25,7	-8,1
0,2755	-23,1	-4,3
0,276	-19,6	-0,5
0,2765	-16,4	2,5
0,277	-14,3	4,3
0,2775	-13,4	5,8
0,278	-13,4	8,0
0,2785	-13,8	11,3
0,279	-13,9	15,4
0,2795	-13,7	19,3
0,28	-13,5	22,3
0,2805	-13,3	23,8
0,281	-13,1	23,4
0,2815	-12,6	21,2
0,282	-12,0	17,7
0,2825	-11,7	14,1
0,283	-11,9	11,3
0,2835	-12,7	9,8
0,284	-14,0	8,6
0,2845	-15,9	7,1
0,285	-18,0	5,3
0,2855	-20,0	3,5
0,286	-21,4	1,7
0,2865	-22,2	-0,3
0,287	-22,4	-2,2
0,2875	-22,3	-3,5
0,288	-21,8	-3,9
0,2885	-21,1	-3,4
0,289	-20,9	-2,2
0,2895	-21,6	-0,4
0,29	-23,3	2,1
0,2905	-25,6	4,9
0,291	-27,7	7,5
0,2915	-29,3	9,0
0,292	-30,4	9,2
0,2925	-31,3	8,7
0,293	-32,2	7,9
0,2935	-33,1	7,3
0,294	-34,4	7,3
0,2945	-36,1	8,4
0,295	-38,1	10,7
0,2955	-40,3	13,3
0,296	-42,5	15,4
0,2965	-44,6	16,6
0,297	-46,2	16,8
0,2975	-46,6	16,2
0,298	-45,2	14,8
0,2985	-42,0	12,9
0,299	-38,4	11,0
0,2995	-35,8	9,4
0,3	-34,7	8,3
0,3005	-34,6	7,8
0,301	-34,7	7,9
0,3015	-34,8	7,9
0,302	-35,0	7,0
0,3025	-34,9	4,8
0,303	-34,5	1,9
0,3035	-33,5	-0,8
0,304	-32,3	-2,3
0,3045	-30,7	-2,1
0,305	-28,8	-0,6
0,3055	-26,8	1,6
0,306	-25,4	4,0
0,3065	-25,0	6,5
0,307	-25,5	9,3
0,3075	-26,6	12,1
0,308	-28,0	14,4
0,3085	-29,3	15,8
0,309	-30,3	16,4
0,3095	-30,9	16,3
0,31	-31,6	15,8
0,3105	-32,6	15,2
0,311	-34,2	15,0
0,3115	-36,2	15,2
0,312	-38,8	15,5
0,3125	-41,6	15,8
0,313	-44,4	15,7
0,3135	-46,8	15,3
0,314	-48,2	14,4
0,3145	-48,3	13,0
0,315	-47,2	11,1
0,3155	-45,6	8,9
0,316	-44,1	6,9
0,3165	-43,1	5,6
0,317	-42,7	5,1
0,3175	-42,8	5,3
0,318	-43,3	5,7
0,3185	-43,8	6,1
0,319	-44,0	6,2
0,3195	-43,7	5,3
0,32	-42,9	3,7
0,3205	-42,1	1,8
0,321	-41,5	0,4
0,3215	-41,3	0,1
0,322	-40,9	1,0
0,3225	-40,2	3,1
0,323	-39,3	6,2
0,3235	-38,7	9,8
0,324	-38,1	13,4
0,3245	-37,1	16,6
0,325	-35,7	19,0
0,3255	-34,2	20,1
0,326	-32,8	20,1
0,3265	-31,7	19,2
0,327	-30,4	18,5
0,3275	-28,9	19,1
0,328	-27,1	21,2
0,3285	-25,4	24,0
0,329	-24,3	26,4
0,3295	-23,9	27,9
0,33	-24,0	28,4
0,3305	-23,9	27,9
0,331	-23,5	26,5
0,3315	-22,8	24,3
0,332	-22,3	21,7
0,3325	-22,5	19,3
0,333	-23,5	17,4
0,3335	-25,3	16,5
0,334	-27,4	16,2
0,3345	-29,8	16,2
0,335	-32,1	16,4
0,3355	-34,3	16,6
0,336	-35,9	16,3
0,3365	-36,6	15,3
0,337	-36,4	13,8
0,3375	-35,6	12,0
0,338	-34,8	10,4
0,3385	-34,4	9,0
0,339	-34,9	7,6
0,3395	-36,7	6,2
0,34	-39,8	5,2
0,3405	-43,1	5,0
0,341	-45,5	5,8
0,3415	-45,9	7,5
0,342	-44,5	9,7
0,3425	-42,0	12,0
0,343	-39,1	14,0
0,3435	-36,3	15,8
0,344	-34,4	18,0
0,3445	-33,5	20,5
0,345	-33,7	23,3
0,3455	-34,4	25,8
0,346	-35,1	27,8
0,3465	-35,5	29,5
0,347	-35,2	31,2
0,3475	-34,0	32,8
0,348	-32,0	33,5
0,3485	-29,4	32,8
0,349	-26,6	31,1
0,3495	-23,9	29,2
0,35	-21,5	28,0
0,3505	-19,5	28,1
0,351	-17,8	29,3
0,3515	-16,5	30,8
0,352	-15,7	31,8
0,3525	-15,4	31,3
0,353	-15,8	28,5
0,3535	-17,2	23,7
0,354	-19,5	17,4
0,3545	-22,4	11,3
0,355	-25,2	6,5
0,3555	-27,6	3,7
0,356	-29,7	3,2
0,3565	-31,8	4,9
0,357	-34,0	8,3
0,3575	-35,9	12,0
0,358	-37,2	14,8
0,3585	-37,8	16,3
0,359	-37,8	16,8
0,3595	-37,3	16,6
0,36	-36,9	16,1
0,3605	-36,8	15,6
0,361	-37,3	16,0
0,3615	-37,7	17,6
0,362	-37,5	19,9
0,3625	-36,6	22,3
0,363	-35,3	24,4
0,3635	-34,1	25,7
0,364	-33,3	26,0
0,3645	-32,6	25,0
0,365	-31,8	22,7
0,3655	-30,9	19,3
0,366	-29,9	16,0
0,3665	-29,2	13,5
0,367	-28,8	12,4
0,3675	-28,9	12,4
0,368	-29,2	13,4
0,3685	-29,5	14,7
0,369	-29,7	15,3
0,3695	-29,8	14,3
0,37	-30,0	11,7
0,3705	-30,4	8,4
0,371	-30,7	5,9
0,3715	-30,5	4,8
0,372	-29,7	5,0
0,3725	-28,7	6,0
0,373	-28,2	7,5
0,3735	-28,7	9,5
0,374	-29,8	11,7
0,3745	-31,0	13,8
0,375	-31,4	15,4
0,3755	-31,1	16,2
0,376	-30,3	16,3
0,3765	-29,6	15,8
0,377	-29,3	15,2
0,3775	-29,4	15,4
0,378	-29,9	16,7
0,3785	-30,8	19,0
0,379	-31,8	21,8
0,3795	-32,5	24,7
0,38	-32,6	27,8
0,3805	-32,0	30,8
0,381	-30,7	33,2
0,3815	-28,3	34,7
0,382	-25,1	35,0
0,3825	-21,7	34,6
0,383	-19,1	34,0
0,3835	-17,8	33,4
0,384	-17,8	32,9
0,3845	-18,9	31,8
0,385	-21,0	29,8
0,3855	-23,4	26,3
0,386	-25,2	21,6
0,3865	-25,8	16,6
0,387	-25,3	12,7
0,3875	-23,8	10,5
0,388	-21,7	9,9
0,3885	-19,4	9,9
0,389	-17,4	10,2
0,3895	-16,4	10,6
0,39	-16,4	11,7
0,3905	-17,1	14,0
0,391	-17,3	17,2
0,3915	-16,8	20,2
0,392	-15,7	21,8
0,3925	-14,7	21,9
0,393	-14,2	20,6
0,3935	-14,7	18,3
0,394	-16,3	15,7
0,3945	-19,1	13,7
0,395	-22,4	12,8
0,3955	-25,3	13,2
0,396	-27,2	14,1
0,3965	-27,5	15,4
0,397	-26,7	16,9
0,3975	-25,0	18,3
0,398	-23,0	19,1
0,3985	-20,9	18,9
0,399	-19,0	17,9
0,3995	-17,6	17,0
0,4	-17,0	16,8
0,4005	-17,1	17,3
0,401	-17,6	18,0
0,4015	-17,8	18,6
0,402	-17,7	19,1
0,4025	-17,3	19,4
0,403	-16,3	19,6
0,4035	-14,9	19,4
0,404	-13,4	18,9
0,4045	-12,1	17,9
0,405	-11,5	16,7
0,4055	-11,8	15,3
0,406	-12,9	14,4
0,4065	-14,7	14,5
0,407	-16,8	15,6
0,4075	-18,5	17,1
0,408	-19,6	18,5
0,4085	-19,9	19,3
0,409	-19,9	19,5
0,4095	-20,0	19,1
0,41	-20,4	18,2
0,4105	-21,5	16,6
0,411	-23,6	15,1
0,4115	-26,9	14,2
0,412	-30,4	14,5
0,4125	-33,0	16,2
0,413	-33,9	18,9
0,4135	-33,7	22,0
0,414	-33,3	24,5
0,4145	-33,1	25,3
0,415	-32,8	24,1
0,4155	-31,7	21,9
0,416	-29,9	19,8
0,4165	-27,6	18,9
0,417	-25,5	19,3
0,4175	-24,4	20,0
0,418	-25,1	20,4
0,4185	-26,9	19,8
0,419	-29,1	18,0
0,4195	-30,8	15,2
0,42	-31,6	11,8
0,4205	-31,7	8,3
0,421	-31,2	5,1
0,4215	-30,1	2,8
0,422	-28,8	1,6
0,4225	-27,6	2,1
0,423	-26,7	4,4
0,4235	-26,4	8,1
0,424	-26,6	12,0
0,4245	-26,7	14,8
0,425	-26,3	16,2
0,4255	-24,9	16,3
0,426	-22,4	16,3
0,4265	-18,8	17,0
0,427	-14,6	19,1
0,4275	-10,6	22,6
0,428	-7,3	27,4
0,4285	-4,9	32,9
0,429	-2,8	38,3
0,4295	-0,8	42,6
0,43	1,1	45,7
0,4305	2,7	47,3
0,431	3,6	47,0
0,4315	3,9	44,8
0,432	3,8	41,1
0,4325	2,8	37,3
0,433	0,9	34,0
0,4335	-2,0	30,9
0,434	-5,9	27,3
0,4345	-10,6	22,8
0,435	-15,4	18,3
0,4355	-19,1	14,8
0,436	-21,0	12,5
0,4365	-21,2	11,0
0,437	-20,9	9,4
0,4375	-21,6	6,9
0,438	-23,7	3,5
0,4385	-27,1	-0,0
0,439	-31,0	-2,9
0,4395	-34,7	-4,5
0,44	-37,5	-4,4
0,4405	-38,9	-2,9
0,441	-38,7	-0,4
0,4415	-36,9	2,3
0,442	-34,3	4,7
0,4425	-31,4	6,3
0,443	-28,8	7,4
0,4435	-26,7	7,8
0,444	-25,0	8,3
0,4445	-23,8	9,3
0,445	-23,2	11,2
0,4455	-23,0	13,4
0,446	-22,8	15,3
0,4465	-22,2	16,8
0,447	-21,0	18,1
0,4475	-19,1	19,1
0,448	-16,7	19,4
0,4485	-13,9	18,9
0,449	-11,3	17,8
0,4495	-9,0	16,8
0,45	-7,5	16,4
0,4505	-6,6	16,6
0,451	-6,2	17,2
0,4515	-6,0	17,7
0,452	-5,8	17,7
0,4525	-5,5	16,9
0,453	-5,0	15,7
0,4535	-4,2	14,1
0,454	-3,6	12,6
0,4545	-3,5	11,5
0,455	-4,3	10,8
0,4555	-5,8	10,4
0,456	-7,9	10,4
0,4565	-10,6	10,9
0,457	-13,5	12,2
0,4575	-16,0	13,8
0,458	-17,3	15,5
0,4585	-17,3	16,7
0,459	-16,3	17,1
0,4595	-15,0	16,5
0,46	-14,1	15,2
0,4605	-13,7	13,8
0,461	-14,1	13,2
0,4615	-15,2	13,8
0,462	-16,6	15,1
0,4625	-17,8	16,5
0,463	-18,6	17,4
0,4635	-19,1	17,7
0,464	-19,2	17,8
0,4645	-18,6	18,1
0,465	-16,8	18,3
0,4655	-13,8	18,3
0,466	-10,6	18,1
0,4665	-7,8	17,7
0,467	-6,0	17,5
0,4675	-5,5	17,5
0,468	-6,1	17,7
0,4685	-7,5	17,7
0,469	-9,0	17,1
0,4695	-10,2	15,2
0,47	-10,7	11,8
0,4705	-10,8	7,7
0,471	-10,6	4,2
0,4715	-9,7	2,5
0,472	-8,1	2,7
0,4725	-6,5	4,3
0,473	-5,9	6,7
0,4735	-6,7	9,4
0,474	-8,2	12,3
0,4745	-9,0	15,3
0,475	-8,4	18,5
0,4755	-6,4	21,7
0,476	-3,6	24,6
0,4765	-0,5	26,9
0,477	2,5	28,5
0,4775	4,9	29,8
0,478	6,5	31,0
0,4785	7,6	32,5
0,479	8,5	34,3
0,4795	9,4	36,0
0,48	10,3	37,2
0,4805	10,8	37,2
0,481	10,7	35,2
0,4815	9,6	31,0
0,482	7,6	25,4
0,4825	4,8	19,4
0,483	1,1	14,3
0,4835	-3,2	10,6
0,484	-7,4	8,4
0,4845	-11,1	7,4
0,485	-14,5	7,1
0,4855	-17,8	6,6
0,486	-21,2	5,1
0,4865	-24,1	2,5
0,487	-25,9	-0,6
0,4875	-26,5	-3,3
0,488	-26,4	-5,1
0,4885	-26,2	-6,3
0,489	-26,5	-7,1
0,4895	-27,4	-6,9
0,49	-28,7	-5,4
0,4905	-29,9	-2,5
0,491	-30,5	1,2
0,4915	-30,3	5,0
0,492	-29,6	8,2
0,4925	-28,9	10,4
0,493	-27,8	11,8
0,4935	-25,7	13,5
0,494	-22,2	17,1
0,4945	-17,8	22,8
0,495	-13,7	29,4
0,4955	-10,7	34,9
0,496	-9,4	38,1
0,4965	-9,6	38,8
0,497	-10,5	37,9
0,4975	-11,2	35,8
0,498	-11,0	32,9
0,4985	-9,3	29,5
0,499	-6,2	26,2
0,4995	-2,5	23,8
0,5	0,8	22,3
0,5005	3,0	20,8
0,501	3,8	18,9
0,5015	3,5	16,9
0,502	2,7	15,4
0,5025	2,2	14,2
0,503	2,3	12,6
0,5035	2,7	10,3
0,504	2,8	7,7
0,5045	2,4	5,7
0,505	1,4	4,4
0,5055	-0,1	3,8
0,506	-2,2	3,9
0,5065	-4,3	4,8
0,507	-6,3	6,9
0,5075	-7,7	9,7
0,508	-8,5	12,4
0,5085	-8,7	14,6
0,509	-8,3	16,3
0,5095	-7,5	17,4
0,51	-6,7	18,2
0,5105	-6,1	18,9
0,511	-6,2	20,1
0,5115	-6,9	22,1
0,512	-7,9	24,4
0,5125	-8,9	26,5
0,513	-9,5	28,1
0,5135	-9,8	29,0
0,514	-9,7	29,2
0,5145	-8,9	28,6
0,515	-7,3	26,9
0,5155	-5,1	24,4
0,516	-3,3	21,5
0,5165	-2,7	18,6
0,517	-3,4	16,2
0,5175	-4,9	14,5
0,518	-6,7	13,7
0,5185	-8,4	13,6
0,519	-9,8	13,5
0,5195	-10,4	12,7
0,52	-10,3	10,8
0,5205	-9,6	8,4
0,521	-8,3	6,2
0,5215	-6,8	4,6
0,522	-5,3	3,6
0,5225	-4,9	2,9
0,523	-6,0	3,0
0,5235	-8,5	4,2
0,524	-11,7	6,5
0,5245	-14,2	9,3
0,525	-15,6	11,6
0,5255	-15,8	13,3
0,526	-15,2	14,3
0,5265	-14,3	14,6
0,527	-13,7	14,6
0,5275	-13,5	14,6
0,528	-14,0	14,9
0,5285	-14,9	15,8
0,529	-15,6	17,4
0,5295	-15,6	19,3
0,53	-14,6	21,5
0,5305	-12,7	23,7
0,531	-10,4	25,3
0,5315	-7,9	25,8
0,532	-5,3	25,0
0,5325	-3,1	23,4
0,533	-1,3	21,7
0,5335	-0,3	20,5
0,534	0,2	20,1
0,5345	0,4	20,1
0,535	0,5	20,1
0,5355	1,0	19,8
0,536	2,5	19,1
0,5365	5,4	17,8
0,537	9,0	16,3
0,5375	12,3	14,6
0,538	14,3	12,7
0,5385	14,8	11,0
0,539	13,8	9,6
0,5395	11,4	9,0
0,54	8,0	9,7
0,5405	4,2	12,0
0,541	0,8	15,0
0,5415	-2,0	17,6
0,542	-4,0	18,9
0,5425	-5,5	19,3
0,543	-6,2	19,3
0,5435	-6,3	18,9
0,544	-6,3	18,1
0,5445	-6,8	17,1
0,545	-8,5	16,0
0,5455	-11,6	15,0
0,546	-15,3	14,1
0,5465	-18,6	13,5
0,547	-20,2	13,7
0,5475	-19,8	14,6
0,548	-17,7	15,3
0,5485	-14,4	15,1
0,549	-11,1	14,2
0,5495	-8,6	13,2
0,55	-7,3	12,8
0,5505	-6,9	13,1
0,551	-6,9	13,6
0,5515	-7,4	13,6
0,552	-8,3	12,7
0,5525	-8,8	10,9
0,553	-8,6	8,5
0,5535	-7,3	6,6
0,554	-4,5	5,7
0,5545	-0,7	6,1
0,555	3,3	7,2
0,5555	6,3	8,2
0,556	7,4	8,8
0,5565	6,8	10,0
0,557	5,3	12,5
0,5575	3,9	16,2
0,558	3,2	19,9
0,5585	3,2	22,6
0,559	3,4	23,7
0,5595	3,2	23,5
0,56	2,5	22,4
0,5605	1,1	21,0
0,561	-0,6	20,0
0,5615	-2,7	19,8
0,562	-4,8	20,6
0,5625	-6,8	21,9
0,563	-8,3	23,2
0,5635	-9,7	23,8
0,564	-11,3	23,3
0,5645	-13,0	21,4
0,565	-14,1	18,2
0,5655	-14,4	14,3
0,566	-14,1	10,9
0,5665	-13,7	8,6
0,567	-13,3	7,9
0,5675	-13,2	8,4
0,568	-13,5	9,3
0,5685	-14,3	9,5
0,569	-15,2	8,2
0,5695	-15,5	5,3
0,57	-14,5	1,5
0,5705	-11,9	-1,8
0,571	-8,5	-3,4
0,5715	-5,2	-3,7
0,572	-2,7	-3,1
0,5725	-1,5	-1,9
0,573	-1,2	-0,2
0,5735	-1,3	2,6
0,574	-1,3	6,3
0,5745	-0,7	10,2
0,575	0,3	13,1
0,5755	1,4	14,4
0,576	2,4	14,2
0,5765	3,5	13,1
0,577	5,0	11,8
0,5775	6,4	11,2
0,578	7,2	11,8
0,5785	7,3	13,8
0,579	6,6	16,2
0,5795	5,9	18,3
0,58	6,0	20,0
0,5805	7,1	21,8
0,581	9,3	23,3
0,5815	11,4	23,8
0,582	12,6	22,5
0,5825	12,0	19,4
0,583	10,0	15,9
0,5835	7,6	12,9
0,584	5,6	11,3
0,5845	4,3	11,0
0,585	3,5	11,4
0,5855	2,7	11,7
0,586	1,6	10,7
0,5865	0,3	8,1
0,587	-1,1	4,3
0,5875	-2,2	0,5
0,588	-2,5	-2,6
0,5885	-2,1	-4,2
0,589	-1,0	-4,3
0,5895	-0,1	-2,9
0,59	-0,1	-0,8
0,5905	-1,3	1,1
0,591	-3,4	1,8
0,5915	-6,0	0,7
0,592	-8,6	-1,5
0,5925	-10,4	-3,5
0,593	-10,9	-4,2
0,5935	-9,6	-3,3
0,594	-7,2	-1,3
0,5945	-4,7	1,2
0,595	-2,9	4,1
0,5955	-2,0	6,9
0,596	-1,6	9,5
0,5965	-1,3	11,6
0,597	-0,4	13,1
0,5975	0,9	13,8
0,598	2,3	13,2
0,5985	3,4	11,0
0,599	4,0	7,8
0,5995	4,1	4,6
0,6	3,8	2,6
0,6005	3,6	2,3
0,601	3,9	3,3
0,6015	4,9	5,1
0,602	6,6	6,9
0,6025	8,6	8,3
0,603	10,6	8,7
0,6035	12,2	7,7
0,604	13,3	5,9
0,6045	13,9	4,3
0,605	14,3	3,5
0,6055	14,8	4,0
0,606	15,4	5,9
0,6065	16,1	9,5
0,607	16,5	14,0
0,6075	16,3	18,2
0,608	15,6	20,8
0,6085	14,4	21,5
0,609	12,8	20,2
0,6095	10,9	17,3
0,61	8,8	13,2
0,6105	6,7	8,8
0,611	4,8	5,2
0,6115	3,0	3,4
0,612	1,5	3,8
0,6125	0,3	5,5
0,613	-0,6	7,4
0,6135	-1,2	8,8
0,614	-1,6	9,3
0,6145	-1,5	9,0
0,615	-0,8	7,9
0,6155	0,4	6,2
0,616	1,6	4,3
0,6165	2,2	2,7
0,617	2,1	1,9
0,6175	1,4	2,1
0,618	0,2	2,7
0,6185	-1,2	3,2
0,619	-2,5	3,0
0,6195	-3,3	1,6
0,62	-3,8	-0,9
0,6205	-3,8	-4,3
0,621	-3,5	-7,7
0,6215	-2,7	-10,2
0,622	-1,5	-11,4
0,6225	-0,3	-11,3
0,623	0,7	-10,0
0,6235	1,1	-7,5
0,624	1,0	-4,3
0,6245	0,8	-1,2
0,625	0,7	1,1
0,6255	0,8	2,1
0,626	1,4	2,4
0,6265	3,1	2,6
0,627	6,0	3,1
0,6275	9,2	4,2
0,628	11,7	6,2
0,6285	13,3	8,8
0,629	14,3	11,7
0,6295	15,3	14,3
0,63	16,8	16,3
0,6305	18,6	17,8
0,631	20,2	18,5
0,6315	21,4	18,0
0,632	22,4	16,2
0,6325	23,2	13,8
0,633	23,8	11,9
0,6335	23,7	11,0
0,634	22,7	11,0
0,6345	21,0	11,4
0,635	18,7	12,0
0,6355	16,3	12,6
0,636	14,5	13,0
0,6365	13,6	12,6
0,637	12,9	11,0
0,6375	11,5	8,0
0,638	8,6	4,0
0,6385	4,5	-0,4
0,639	-0,2	-4,5
0,6395	-4,9	-7,2
0,64	-9,1	-7,9
0,6405	-12,5	-7,0
0,641	-15,0	-5,2
0,6415	-16,3	-3,5
0,642	-16,4	-2,7
0,6425	-15,6	-3,0
0,643	-14,1	-4,0
0,6435	-12,2	-4,9
0,644	-10,2	-4,8
0,6445	-8,2	-3,5
0,645	-6,3	-0,9
0,6455	-4,6	2,4
0,646	-2,8	5,6
0,6465	-1,0	8,4
0,647	0,7	10,5
0,6475	2,3	11,6
0,648	3,7	11,4
0,6485	5,1	9,6
0,649	6,4	6,8
0,6495	7,3	4,0
0,65	7,8	2,0
0,6505	7,9	1,3
0,651	7,9	1,3
0,6515	7,7	1,7
0,652	7,6	2,6
0,6525	7,9	3,3
0,653	8,7	3,4
0,6535	9,9	2,5
0,654	11,1	1,0
0,6545	11,9	-0,6
0,655	12,3	-1,8
0,6555	12,3	-2,7
0,656	11,8	-3,1
0,6565	10,6	-2,7
0,657	9,0	-1,2
0,6575	7,6	1,3
0,658	7,2	4,0
0,6585	8,0	6,2
0,659	9,9	7,5
0,6595	12,3	7,9
0,66	14,3	7,7
0,6605	15,3	7,1
0,661	15,3	6,8
0,6615	14,4	7,2
0,662	13,4	8,4
0,6625	12,5	10,4
0,663	12,1	12,4
0,6635	12,1	14,3
0,664	12,4	15,6
0,6645	13,3	16,2
0,665	14,4	15,7
0,6655	15,7	14,1
0,666	16,6	11,8
0,6665	16,5	9,5
0,667	15,4	7,7
0,6675	13,5	6,4
0,668	11,2	5,3
0,6685	8,8	4,2
0,669	7,0	3,3
0,6695	6,5	2,4
0,67	7,6	1,6
0,6705	9,9	1,0
0,671	12,6	0,6
0,6715	14,9	0,3
0,672	16,3	-0,0
0,6725	16,7	-0,5
0,673	16,0	-0,8
0,6735	14,4	-0,2
0,674	12,1	1,1
0,6745	9,5	2,7
0,675	7,4	3,8
0,6755	6,1	4,4
0,676	6,0	4,7
0,6765	6,5	4,9
0,677	7,1	5,2
0,6775	7,2	5,7
0,678	6,7	6,9
0,6785	5,7	8,7
0,679	4,6	10,8
0,6795	3,5	12,6
0,68	2,7	13,7
0,6805	2,6	14,2
0,681	3,7	14,5
0,6815	5,7	14,5
0,682	8,4	14,2
0,6825	11,2	13,8
0,683	13,3	13,8
0,6835	14,5	14,1
0,684	14,3	14,2
0,6845	12,3	13,2
0,685	9,0	10,9
0,6855	5,5	7,9
0,686	3,3	4,8
0,6865	3,3	2,1
0,687	5,3	0,1
0,6875	7,8	-1,4
0,688	9,6	-2,5
0,6885	10,1	-3,5
0,689	9,5	-4,3
0,6895	8,4	-4,2
0,69	7,3	-2,5
0,6905	6,8	0,7
0,691	6,8	4,6
0,6915	7,6	8,2
0,692	8,8	10,6
0,6925	10,0	11,7
0,693	11,0	11,9
0,6935	12,0	11,5
0,694	13,4	10,8
0,6945	14,9	10,3
0,695	15,7	10,0
0,6955	15,1	10,0
0,696	13,5	10,2
0,6965	11,7	10,8
0,697	10,4	12,1
0,6975	10,1	13,9
0,698	10,7	15,5
0,6985	12,2	15,8
0,699	13,8	14,4
0,6995	14,9	12,1
0,7	14,9	9,8
0,7005	13,8	7,8
0,701	11,9	6,2
0,7015	9,4	4,7
0,702	6,6	3,1
0,7025	4,3	1,4
0,703	3,6	-0,6
0,7035	4,8	-2,6
0,704	7,4	-4,4
0,7045	10,2	-5,8
0,705	12,7	-6,7
0,7055	14,5	-6,9
0,706	15,6	-6,1
0,7065	15,9	-3,6
0,707	15,7	0,9
0,7075	15,5	6,8
0,708	15,8	13,0
0,7085	16,5	18,0
0,709	16,9	21,3
0,7095	17,0	22,7
0,71	16,8	22,7
0,7105	16,8	21,8
0,711	16,7	20,9
0,7115	16,2	20,2
0,712	14,7	19,4
0,7125	12,0	17,7
0,713	8,1	14,1
0,7135	3,3	8,9
0,714	-1,1	3,5
0,7145	-3,6	-0,9
0,715	-3,7	-3,9
0,7155	-2,5	-6,6
0,716	-1,7	-9,8
0,7165	-2,3	-13,0
0,717	-3,8	-15,3
0,7175	-5,0	-15,8
0,718	-5,5	-14,6
0,7185	-5,6	-12,5
0,719	-5,4	-10,5
0,7195	-5,3	-9,5
0,72	-5,0	-10,0
0,7205	-4,4	-11,6
0,721	-3,6	-13,4
0,7215	-2,6	-14,9
0,722	-1,7	-15,5
0,7225	-0,9	-15,2
0,723	-0,4	-13,7
0,7235	-0,3	-11,0
0,724	-0,3	-7,5
0,7245	0,2	-3,8
0,725	1,7	-0,5
0,7255	4,0	2,4
0,726	6,6	4,8
0,7265	8,7	6,4
0,727	9,8	6,9
0,7275	9,8	6,5
0,728	8,6	6,1
0,7285	6,9	6,5
0,729	5,1	7,7
0,7295	3,9	9,3
0,73	3,4	11,1
0,7305	3,4	12,7
0,731	3,8	13,7
0,7315	4,7	13,4
0,732	6,0	11,6
0,7325	7,6	8,7
0,733	9,0	5,7
0,7335	10,3	3,7
0,734	11,1	2,9
0,7345	11,6	3,3
0,735	12,3	4,3
0,7355	13,2	5,8
0,736	14,6	6,8
0,7365	16,0	6,7
0,737	17,3	5,2
0,7375	18,2	3,2
0,738	19,1	1,5
0,7385	20,0	0,7
0,739	20,6	0,7
0,7395	20,5	1,5
0,74	19,5	2,9
0,7405	17,8	5,0
0,741	15,8	7,1
0,7415	14,1	8,7
0,742	12,7	9,6
0,7425	11,6	10,0
0,743	11,1	10,1
0,7435	10,9	10,3
0,744	10,7	10,6
0,7445	10,3	11,2
0,745	9,3	12,3
0,7455	7,9	13,5
0,746	6,2	14,2
0,7465	4,0	13,7
0,747	1,4	12,3
0,7475	-0,9	10,7
0,748	-2,1	9,2
0,7485	-1,9	7,6
0,749	-0,6	5,6
0,7495	0,8	3,4
0,75	1,4	1,4
0,7505	1,0	0,1
0,751	0,0	-0,4
0,7515	-0,9	-0,1
0,752	-1,5	0,5
0,7525	-1,4	1,1
0,753	-0,5	1,0
0,7535	1,0	-0,3
0,754	2,6	-2,4
0,7545	4,0	-4,8
0,755	5,2	-6,8
0,7555	6,5	-8,0
0,756	7,8	-8,1
0,7565	8,4	-7,1
0,757	8,1	-5,0
0,7575	7,4	-2,5
0,758	7,1	-0,2
0,7585	7,8	1,4
0,759	9,6	2,6
0,7595	12,3	3,8
0,76	15,7	5,2
0,7605	19,0	6,7
0,761	21,2	7,8
0,7615	21,5	8,6
0,762	19,9	9,2
0,7625	17,5	10,0
0,763	15,8	11,3
0,7635	15,6	13,3
0,764	16,8	15,9
0,7645	18,7	18,1
0,765	20,6	18,6
0,7655	22,3	17,0
0,766	23,5	13,9
0,7665	24,1	10,8
0,767	23,8	8,8
0,7675	22,8	8,1
0,768	21,2	7,9
0,7685	18,8	7,7
0,769	15,9	7,1
0,7695	13,3	5,7
0,77	11,6	3,3
0,7705	11,0	0,1
0,771	11,2	-3,3
0,7715	11,6	-6,1
0,772	11,9	-8,1
0,7725	12,0	-8,7
0,773	11,7	-7,9
0,7735	11,2	-5,8
0,774	10,7	-2,6
0,7745	10,7	0,8
0,775	11,2	3,6
0,7755	12,1	5,3
0,776	13,2	5,8
0,7765	14,1	5,6
0,777	14,3	4,7
0,7775	13,6	3,3
0,778	11,7	2,0
0,7785	9,1	1,4
0,779	6,3	2,1
0,7795	3,7	3,5
0,78	1,3	4,7
0,7805	-0,8	5,1
0,781	-2,0	4,9
0,7815	-1,8	4,3
0,782	0,0	3,2
0,7825	3,3	2,0
0,783	7,0	1,2
0,7835	10,5	1,3
0,784	13,0	2,0
0,7845	14,0	2,6
0,785	13,7	2,8
0,7855	12,7	2,8
0,786	11,9	2,7
0,7865	12,1	2,1
0,787	13,1	0,9
0,7875	14,6	-0,7
0,788	15,8	-2,3
0,7885	16,4	-3,7
0,789	16,6	-4,7
0,7895	16,6	-4,8
0,79	16,3	-3,7
0,7905	15,7	-1,6
0,791	14,6	0,6
0,7915	13,2	2,3
0,792	12,2	3,1
0,7925	12,0	3,4
0,793	12,8	3,8
0,7935	14,5	4,8
0,794	16,5	6,6
0,7945	18,0	9,2
0,795	18,7	12,7
0,7955	18,6	16,7
0,796	18,4	20,4
0,7965	18,4	23,5
0,797	18,6	25,9
0,7975	19,2	27,8
0,798	20,2	28,5
0,7985	21,7	27,4
0,799	23,4	24,5
0,7995	24,5	20,7
0,8	24,3	17,2
0,8005	22,7	14,5
0,801	20,3	12,5
0,8015	17,6	10,5
0,802	14,7	8,3
0,8025	12,0	5,7
0,803	10,4	2,9
0,8035	10,8	0,3
0,804	13,3	-1,9
0,8045	16,9	-3,3
0,805	20,4	-4,3
0,8055	22,8	-5,3
0,806	23,6	-6,8
0,8065	22,2	-8,9
0,807	18,9	-10,9
0,8075	14,8	-11,6
0,808	11,6	-10,1
0,8085	10,7	-6,4
0,809	11,7	-2,1
0,8095	13,3	1,1
0,81	13,9	2,0
0,8105	12,8	0,8
0,811	10,3	-1,0
0,8115	7,1	-1,8
0,812	4,1	-0,8
0,8125	1,8	1,8
0,813	0,3	5,1
0,8135	-0,2	8,1
0,814	0,2	10,3
0,8145	1,4	11,1
0,815	3,0	10,0
0,8155	4,6	7,0
0,816	5,8	3,1
0,8165	6,2	-0,4
0,817	6,1	-2,4
0,8175	5,7	-2,8
0,818	5,6	-2,0
0,8185	6,0	-0,4
0,819	7,0	1,3
0,8195	8,4	2,3
0,82	10,1	1,6
0,8205	11,4	-0,7
0,821	12,1	-3,6
0,8215	12,2	-6,0
0,822	11,8	-7,3
0,8225	10,9	-7,7
0,823	9,6	-7,1
0,8235	8,2	-5,8
0,824	6,8	-3,7
0,8245	5,9	-1,1
0,825	5,9	1,4
0,8255	7,0	3,2
0,826	8,9	4,4
0,8265	11,2	5,0
0,827	13,5	5,3
0,8275	15,4	5,6
0,828	16,8	6,8
0,8285	17,5	9,3
0,829	17,7	13,2
0,8295	17,8	17,6
0,83	17,8	21,6
0,8305	17,7	24,5
0,831	17,6	25,8
0,8315	17,8	25,5
0,832	18,8	23,7
0,8325	20,2	21,1
0,833	21,4	18,7
0,8335	21,7	17,0
0,834	21,0	16,0
0,8345	19,5	15,2
0,835	17,6	14,0
0,8355	15,5	12,4
0,836	13,8	10,3
0,8365	12,5	7,6
0,837	11,3	4,1
0,8375	9,9	0,3
0,838	7,8	-3,2
0,8385	5,1	-5,8
0,839	1,7	-7,7
0,8395	-2,1	-9,0
0,84	-5,8	-9,7
0,8405	-9,1	-9,3
0,841	-11,8	-8,2
0,8415	-13,9	-6,9
0,842	-15,2	-6,0
0,8425	-15,4	-5,5
0,843	-14,6	-5,2
0,8435	-12,9	-4,7
0,844	-10,6	-3,9
0,8445	-8,4	-2,5
0,845	-6,6	-0,5
0,8455	-5,5	2,1
0,846	-4,6	4,7
0,8465	-3,3	7,1
0,847	-1,4	9,3
0,8475	1,4	10,8
0,848	5,4	11,5
0,8485	10,2	10,9
0,849	15,1	9,2
0,8495	19,4	7,4
0,85	22,5	6,7
0,8505	24,7	7,6
0,851	26,1	9,7
0,8515	27,2	12,3
0,852	27,7	14,7
0,8525	27,7	16,4
0,853	27,3	16,9
0,8535	26,5	16,0
0,854	25,1	13,9
0,8545	22,9	11,2
0,855	19,9	8,4
0,8555	16,7	5,8
0,856	13,4	3,5
0,8565	10,5	2,2
0,857	7,8	2,3
0,8575	5,7	3,4
0,858	4,2	4,7
0,8585	3,3	5,1
0,859	2,8	4,1
0,8595	2,2	1,3
0,86	1,5	-2,4
0,8605	1,2	-6,0
0,861	1,3	-8,2
0,8615	1,6	-8,3
0,862	1,6	-6,5
0,8625	1,3	-3,6
0,863	1,3	-0,1
0,8635	1,8	3,8
0,864	3,1	7,3
0,8645	4,4	9,3
0,865	5,2	8,9
0,8655	5,6	6,6
0,866	5,6	3,7
0,8665	5,2	1,3
0,867	4,3	-0,0
0,8675	3,0	-0,3
0,868	1,7	0,1
0,8685	0,6	1,0
0,869	-0,1	2,1
0,8695	-0,2	3,0
0,87	0,6	3,0
0,8705	1,8	1,8
0,871	3,0	-0,4
0,8715	3,7	-2,7
0,872	4,1	-4,7
0,8725	4,8	-5,8
0,873	6,0	-5,7
0,8735	7,9	-4,0
0,874	10,6	-0,2
0,8745	14,1	5,1
0,875	18,0	10,1
0,8755	21,3	13,4
0,876	23,0	14,2
0,8765	22,9	12,8
0,877	21,9	10,3
0,8775	20,8	8,1
0,878	20,2	7,4
0,8785	19,7	8,4
0,879	18,9	10,7
0,8795	17,7	13,2
0,88	16,1	15,2
0,8805	14,6	16,3
0,881	13,8	16,5
0,8815	13,9	16,0
0,882	15,3	15,1
0,8825	17,6	14,1
0,883	20,1	13,3
0,8835	22,3	12,9
0,884	23,7	12,7
0,8845	24,3	11,7
0,885	23,3	9,3
0,8855	20,4	5,4
0,886	16,0	0,6
0,8865	11,2	-4,4
0,887	7,2	-8,8
0,8875	5,0	-11,7
0,888	4,8	-12,4
0,8885	6,3	-11,5
0,889	9,0	-9,8
0,8895	11,6	-8,2
0,89	13,0	-6,8
0,8905	12,6	-5,2
0,891	10,9	-3,3
0,8915	8,7	-1,3
0,892	6,7	0,2
0,8925	5,0	0,9
0,893	3,8	1,1
0,8935	2,9	0,7
0,894	2,4	0,1
0,8945	2,2	-0,2
0,895	1,7	0,4
0,8955	0,9	1,7
0,896	-0,1	3,5
0,8965	-1,0	5,2
0,897	-1,5	6,6
0,8975	-1,6	7,3
0,898	-1,2	7,2
0,8985	-0,1	6,1
0,899	1,6	4,3
0,8995	3,7	2,3
0,9	5,8	0,8
0,9005	7,7	0,4
0,901	9,4	1,0
0,9015	11,3	2,3
0,902	13,0	3,6
0,9025	14,7	4,6
0,903	16,1	4,7
0,9035	17,2	3,8
0,904	17,8	2,2
0,9045	17,6	0,6
0,905	17,0	-0,5
0,9055	16,3	-1,0
0,906	15,8	-0,9
0,9065	15,7	0,6
0,907	15,8	3,9
0,9075	16,3	9,1
0,908	17,1	14,7
0,9085	18,1	19,3
0,909	18,8	21,7
0,9095	18,9	21,7
0,91	18,1	19,6
0,9105	16,1	15,9
0,911	12,9	11,7
0,9115	8,7	8,1
0,912	4,3	5,8
0,9125	0,6	4,8
0,913	-1,9	4,3
0,9135	-3,2	3,1
0,914	-3,7	1,1
0,9145	-3,3	-1,3
0,915	-1,8	-3,3
0,9155	1,0	-4,6
0,916	5,0	-5,2
0,9165	9,5	-4,8
0,917	13,8	-3,5
0,9175	16,9	-1,6
0,918	18,5	0,1
0,9185	18,8	0,9
0,919	18,7	1,3
0,9195	19,0	1,4
0,92	20,1	1,3
0,9205	21,7	1,0
0,921	22,8	0,4
0,9215	22,6	-0,7
0,922	20,9	-2,2
0,9225	18,1	-3,7
0,923	14,8	-4,7
0,9235	11,7	-4,5
0,924	9,1	-3,0
0,9245	7,3	-0,8
0,925	6,3	1,3
0,9255	5,9	2,9
0,926	6,2	3,7
0,9265	6,7	3,6
0,927	7,3	2,9
0,9275	7,7	2,2
0,928	7,7	2,2
0,9285	7,3	3,5
0,929	6,4	6,1
0,9295	5,4	8,9
0,93	4,6	11,3
0,9305	4,1	12,9
0,931	3,7	13,6
0,9315	3,5	13,2
0,932	4,0	11,5
0,9325	5,2	9,2
0,933	7,0	7,3
0,9335	9,0	6,7
0,934	10,8	7,4
0,9345	11,9	9,0
0,935	12,1	10,7
0,9355	11,3	12,2
0,936	9,9	13,1
0,9365	8,8	12,6
0,937	8,4	10,7
0,9375	8,9	7,9
0,938	10,0	5,3
0,9385	11,0	3,3
0,939	11,7	1,9
0,9395	11,8	1,2
0,94	11,1	1,4
0,9405	9,7	2,9
0,941	7,8	5,0
0,9415	5,7	6,8
0,942	3,8	7,9
0,9425	2,7	8,6
0,943	2,5	9,1
0,9435	2,9	9,3
0,944	3,2	9,1
0,9445	3,0	8,7
0,945	2,1	8,4
0,9455	0,8	8,6
0,946	-0,7	9,1
0,9465	-2,1	9,4
0,947	-3,3	9,2
0,9475	-3,9	8,6
0,948	-3,7	7,8
0,9485	-1,9	6,9
0,949	1,3	6,1
0,9495	4,8	5,0
0,95	7,0	3,7
0,9505	7,6	2,2
0,951	6,8	0,7
0,9515	5,5	-0,2
0,952	4,4	-0,3
0,9525	4,1	0,4
0,953	4,7	1,0
0,9535	6,1	1,1
0,954	7,9	0,5
0,9545	9,3	-0,8
0,955	9,8	-2,2
0,9555	9,5	-3,7
0,956	8,6	-4,6
0,9565	7,2	-4,8
0,957	5,7	-3,8
0,9575	4,3	-2,0
0,958	3,8	0,2
0,9585	4,7	2,4
0,959	7,2	4,8
0,9595	10,8	7,6
0,96	14,9	10,7
0,9605	18,6	13,7
0,961	21,4	16,3
0,9615	22,6	18,6
0,962	22,2	20,8
0,9625	20,3	22,9
0,963	17,7	24,5
0,9635	15,4	25,3
0,964	14,1	25,8
0,9645	13,8	25,8
0,965	14,5	25,2
0,9655	15,4	23,1
0,966	16,1	20,0
0,9665	15,8	16,6
0,967	14,4	14,3
0,9675	12,4	13,6
0,968	10,3	14,2
0,9685	8,3	15,6
0,969	6,7	17,0
0,9695	5,2	17,7
0,97	4,2	16,9
0,9705	3,5	14,6
0,971	2,9	11,1
0,9715	2,3	7,1
0,972	1,6	3,3
0,9725	0,9	0,4
0,973	0,2	-1,2
0,9735	-0,8	-1,0
0,974	-2,3	0,9
0,9745	-4,3	3,6
0,975	-6,7	5,9
0,9755	-8,8	7,0
0,976	-10,4	6,8
0,9765	-11,4	5,8
0,977	-11,9	4,5
0,9775	-12,1	3,3
0,978	-12,7	2,7
0,9785	-14,1	3,0
0,979	-15,9	4,5
0,9795	-17,6	6,8
0,98	-18,2	9,3
0,9805	-17,5	11,5
0,981	-15,5	13,3
0,9815	-12,6	14,2
0,982	-9,3	13,7
0,9825	-6,1	12,1
0,983	-3,2	10,3
0,9835	-0,6	9,3
0,984	1,8	9,6
0,9845	4,0	10,9
0,985	5,8	12,7
0,9855	7,2	14,6
0,986	8,5	16,0
0,9865	10,2	16,9
0,987	12,3	17,0
0,9875	14,7	16,3
0,988	16,8	14,8
0,9885	18,6	12,7
0,989	20,1	10,3
0,9895	21,1	8,3
0,99	21,1	7,2
0,9905	19,4	6,9
0,991	16,2	7,2
0,9915	12,7	7,3
0,992	9,9	7,1
0,9925	8,6	6,5
0,993	8,7	5,9
0,9935	9,6	5,7
0,994	10,9	6,1
0,9945	12,0	7,2
0,995	12,3	9,1
0,9955	11,3	11,2
0,996	9,0	12,7
0,9965	6,0	13,3
0,997	3,2	13,2
0,9975	1,1	13,0
0,998	0,1	12,9
0,9985	0,1	12,4
0,999	0,5	11,0
0,9995	0,8	8,7
1	0,2	6,2
1,0005	-1,3	4,2
1,001	-3,0	2,8
1,0015	-4,4	2,3
1,002	-4,8	2,7
1,0025	-4,5	3,6
1,003	-3,4	4,5
1,0035	-1,8	4,7
1,004	0,1	3,8
1,0045	1,8	2,3
1,005	2,8	0,9
1,0055	3,3	0,1
1,006	3,2	-0,1
1,0065	2,8	0,7
1,007	1,8	2,5
1,0075	0,6	5,1
1,008	-0,5	7,8
1,0085	-0,9	9,8
1,009	-0,3	10,9
1,0095	1,0	11,2
1,01	2,7	11,0
1,0105	4,1	10,5
1,011	5,0	10,1
1,0115	5,2	10,4
1,012	4,5	11,8
1,0125	3,2	13,7
1,013	1,8	15,5
1,0135	0,5	16,8
1,014	-0,6	18,0
1,0145	-1,1	18,6
1,015	-1,0	18,5
1,0155	-0,1	17,4
1,016	1,4	15,4
1,0165	2,6	12,9
1,017	2,9	10,7
1,0175	2,0	8,9
1,018	0,5	7,7
1,0185	-1,3	6,6
1,019	-2,9	5,4
1,0195	-4,3	4,1
1,02	-4,8	2,5
1,0205	-4,1	1,1
1,021	-2,2	0,6
1,0215	0,4	1,6
1,022	3,0	4,0
1,0225	5,0	6,9
1,023	6,2	9,6
1,0235	6,7	12,5
1,024	6,9	16,0
1,0245	7,8	20,3
1,025	9,6	24,2
1,0255	12,0	26,6
1,026	14,4	27,1
1,0265	16,1	25,9
1,027	16,6	23,3
1,0275	15,4	19,3
1,028	12,2	14,6
1,0285	7,6	10,0
1,029	2,8	6,8
1,0295	-0,7	5,8
1,03	-2,4	6,5
1,0305	-2,6	8,5
1,031	-1,5	10,7
1,0315	0,5	12,3
1,032	3,1	12,5
1,0325	5,8	11,2
1,033	7,7	9,1
1,0335	8,2	7,0
1,034	7,6	5,8
1,0345	6,6	5,8
1,035	5,8	6,5
1,0355	5,5	7,8
1,036	5,7	8,8
1,0365	6,1	8,7
1,037	6,7	6,9
1,0375	7,0	3,5
1,038	6,5	-0,3
1,0385	5,2	-3,3
1,039	3,3	-5,2
1,0395	1,1	-5,7
1,04	-1,2	-4,8
1,0405	-3,3	-2,7
1,041	-5,0	0,3
1,0415	-5,6	3,3
1,042	-4,9	5,8
1,0425	-3,4	7,4
1,043	-1,7	8,0
1,0435	-0,7	7,6
1,044	-0,9	6,1
1,0445	-2,4	4,2
1,045	-4,7	3,1
1,0455	-7,0	3,5
1,046	-8,3	5,4
1,0465	-8,2	8,7
1,047	-6,7	12,6
1,0475	-4,0	16,5
1,048	-0,7	19,5
1,0485	2,8	21,0
1,049	5,7	20,4
1,0495	7,8	17,9
1,05	8,6	14,8
1,0505	8,7	12,2
1,051	8,5	10,5
1,0515	8,4	9,8
1,052	8,2	9,5
1,0525	8,0	9,4
1,053	8,1	9,1
1,0535	8,6	8,2
1,054	9,3	6,5
1,0545	9,9	4,3
1,055	10,3	2,2
1,0555	10,6	0,9
1,056	11,2	0,9
1,0565	11,8	2,5
1,057	12,0	5,5
1,0575	11,5	9,3
1,058	10,3	13,1
1,0585	8,7	15,9
1,059	6,8	17,3
1,0595	4,8	17,4
1,06	3,0	16,8
1,0605	1,3	15,6
1,061	-0,5	14,2
1,0615	-2,5	12,5
1,062	-4,6	10,8
1,0625	-7,1	9,2
1,063	-9,6	7,8
1,0635	-11,6	6,8
1,064	-12,5	6,6
1,0645	-12,3	6,9
1,065	-10,7	7,4
1,0655	-7,5	7,9
1,066	-3,3	8,4
1,0665	1,0	9,1
1,067	4,3	10,3
1,0675	6,2	11,8
1,068	7,1	13,4
1,0685	7,3	14,8
1,069	7,3	15,7
1,0695	7,1	15,8
1,07	7,3	14,5
1,0705	8,0	12,1
1,071	9,3	9,1
1,0715	11,1	6,6
1,072	13,5	4,7
1,0725	16,2	3,2
1,073	18,2	1,5
1,0735	18,3	-0,7
1,074	15,9	-3,1
1,0745	11,6	-4,8
1,075	7,2	-5,7
1,0755	4,0	-5,6
1,076	2,5	-5,0
1,0765	2,4	-3,9
1,077	3,4	-2,3
1,0775	5,0	-0,3
1,078	6,4	2,2
1,0785	6,7	4,9
1,079	5,6	7,8
1,0795	3,2	10,3
1,08	-0,0	11,9
1,0805	-3,5	12,2
1,081	-6,8	11,3
1,0815	-9,3	9,5
1,082	-10,5	7,1
1,0825	-10,2	4,5
1,083	-8,6	2,3
1,0835	-6,5	1,0
1,084	-4,6	0,8
1,0845	-2,9	1,4
1,085	-1,5	2,8
1,0855	-0,2	4,3
1,086	1,0	5,4
1,0865	2,2	5,4
1,087	3,5	4,2
1,0875	5,0	2,3
1,088	7,0	0,7
1,0885	9,7	0,3
1,089	12,9	1,1
1,0895	15,9	2,9
1,09	18,2	5,3
1,0905	18,9	8,1
1,091	17,9	10,4
1,0915	15,3	11,5
1,092	11,9	11,1
1,0925	8,7	9,5
1,093	6,3	7,4
1,0935	4,9	5,3
1,094	3,9	3,2
1,0945	2,8	1,3
1,095	1,3	0,1
1,0955	-0,9	-0,2
1,096	-3,6	0,2
1,0965	-6,4	0,7
1,097	-8,8	1,1
1,0975	-10,6	1,5
1,098	-11,6	1,9
1,0985	-11,5	2,0
1,099	-10,4	1,5
1,0995	-8,7	0,6
1,1	-6,9	-0,3
1,1005	-5,4	-0,7
1,101	-4,3	-0,7
1,1015	-3,3	-0,5
1,102	-2,5	-0,5
1,1025	-1,5	-0,8
1,103	0,3	-1,3
1,1035	3,1	-1,8
1,104	6,3	-2,6
1,1045	9,3	-3,8
1,105	11,4	-4,9
1,1055	12,8	-5,8
1,106	13,8	-6,2
1,1065	14,3	-6,1
1,107	13,9	-5,2
1,1075	12,8	-3,3
1,108	11,2	-1,0
1,1085	9,7	1,2
1,109	8,4	2,3
1,1095	7,3	2,6
1,11	6,9	2,4
1,1105	7,3	2,2
1,111	8,4	2,4
1,1115	9,6	3,1
1,112	10,1	4,6
1,1125	10,0	6,7
1,113	9,6	9,0
1,1135	9,3	11,1
1,114	9,1	12,7
1,1145	9,0	13,5
1,115	9,3	13,4
1,1155	10,1	12,1
1,116	11,6	10,0
1,1165	13,8	8,0
1,117	16,1	7,0
1,1175	18,0	7,1
1,118	19,1	7,5
1,1185	19,3	7,8
1,119	18,9	7,7
1,1195	18,3	6,9
1,12	18,1	5,5
1,1205	18,6	3,7
1,121	19,8	1,7
1,1215	20,9	-0,4
1,122	21,4	-2,5
1,1225	21,2	-4,3
1,123	20,4	-5,1
1,1235	19,3	-4,6
1,124	17,5	-2,9
1,1245	15,0	-0,5
1,125	12,3	1,7
1,1255	10,0	2,9
1,126	8,2	2,9
1,1265	6,8	1,8
1,127	5,9	0,3
1,1275	5,8	-1,3
1,128	6,2	-2,3
1,1285	6,9	-1,5
1,129	7,5	0,8
1,1295	7,7	4,1
1,13	7,7	7,1
1,1305	8,1	9,5
1,131	9,1	11,5
1,1315	11,1	12,9
1,132	14,2	13,9
1,1325	17,9	14,3
1,133	21,3	13,8
1,1335	23,0	12,6
1,134	22,6	11,1
1,1345	20,5	9,5
1,135	17,7	7,7
1,1355	14,9	5,4
1,136	12,3	2,3
1,1365	10,1	-1,4
1,137	8,7	-5,1
1,1375	8,4	-7,8
1,138	9,0	-9,0
1,1385	9,8	-8,7
1,139	10,2	-7,9
1,1395	10,2	-6,9
1,14	10,0	-5,6
1,1405	9,6	-3,5
1,141	8,9	-0,7
1,1415	8,2	2,2
1,142	7,7	4,0
1,1425	7,3	4,1
1,143	6,3	2,2
1,1435	4,3	-1,3
1,144	2,0	-5,3
1,1445	0,3	-8,3
1,145	-0,2	-9,0
1,1455	0,4	-7,1
1,146	1,9	-3,1
1,1465	4,1	1,8
1,147	6,4	6,4
1,1475	8,6	10,0
1,148	10,4	11,9
1,1485	11,8	11,9
1,149	13,3	10,5
1,1495	15,1	8,3
1,15	16,8	6,3
1,1505	18,0	4,9
1,151	18,7	4,4
1,1515	19,1	4,6
1,152	19,3	4,8
1,1525	19,8	4,9
1,153	20,4	4,2
1,1535	21,2	2,3
1,154	21,7	-0,8
1,1545	21,5	-4,6
1,155	20,2	-8,0
1,1555	18,0	-10,7
1,156	15,3	-12,4
1,1565	12,7	-13,1
1,157	10,5	-12,1
1,1575	9,2	-9,4
1,158	8,6	-5,7
1,1585	8,5	-2,2
1,159	8,5	0,1
1,1595	8,3	1,1
1,16	8,1	1,3
1,1605	8,3	1,2
1,161	9,1	1,1
1,1615	10,1	1,5
1,162	10,9	2,9
1,1625	11,3	5,3
1,163	11,6	8,2
1,1635	12,1	10,8
1,164	12,7	12,7
1,1645	13,2	14,0
1,165	13,9	14,8
1,1655	14,9	15,1
1,166	16,1	14,7
1,1665	17,4	14,1
1,167	18,4	13,9
1,1675	18,9	14,1
1,168	18,4	14,2
1,1685	16,5	13,7
1,169	13,3	12,1
1,1695	9,5	9,4
1,17	6,5	5,7
1,1705	5,0	1,1
1,171	4,6	-3,9
1,1715	4,3	-8,5
1,172	3,7	-12,0
1,1725	2,8	-14,4
1,173	1,9	-16,0
1,1735	0,7	-16,9
1,174	-1,3	-17,3
1,1745	-3,8	-16,9
1,175	-6,0	-16,0
1,1755	-7,0	-14,9
1,176	-6,4	-13,7
1,1765	-4,3	-12,4
1,177	-1,5	-10,7
1,1775	1,5	-8,8
1,178	3,9	-6,7
1,1785	5,5	-4,3
1,179	6,8	-1,5
1,1795	7,9	1,4
1,18	9,1	3,9
1,1805	10,3	5,9
1,181	11,5	7,4
1,1815	13,1	8,3
1,182	15,0	8,0
1,1825	16,8	6,0
1,183	18,1	2,4
1,1835	18,2	-1,8
1,184	16,7	-5,5
1,1845	14,2	-8,1
1,185	11,7	-9,0
1,1855	9,6	-8,4
1,186	7,9	-6,9
1,1865	6,7	-5,9
1,187	6,2	-6,2
1,1875	6,9	-7,6
1,188	8,6	-9,3
1,1885	10,5	-10,5
1,189	12,1	-11,2
1,1895	13,0	-11,3
1,19	12,8	-10,7
1,1905	11,7	-9,0
1,191	10,1	-6,2
1,1915	8,6	-3,2
1,192	7,8	-0,7
1,1925	7,5	0,6
1,193	7,5	0,5
1,1935	7,6	-0,4
1,194	7,6	-1,6
1,1945	7,2	-2,5
1,195	6,1	-2,6
1,1955	4,7	-1,6
1,196	3,5	0,3
1,1965	2,7	2,2
1,197	2,2	3,6
1,1975	1,6	4,3
1,198	0,9	4,4
1,1985	0,1	3,7
1,199	-0,8	1,9
1,1995	-1,9	-0,9
1,2	-3,1	-3,9
1,2005	-4,2	-6,1
1,201	-4,8	-6,8
1,2015	-4,9	-6,7
1,202	-4,8	-6,1
1,2025	-4,8	-5,7
1,203	-4,8	-6,0
1,2035	-3,4	-7,0
1,204	-0,2	-8,1
1,2045	4,3	-9,0
1,205	8,8	-9,7
1,2055	11,9	-10,5
1,206	13,8	-11,2
1,2065	14,9	-10,7
1,207	15,7	-8,6
1,2075	15,9	-5,3
1,208	15,8	-1,8
1,2085	15,6	1,1
1,209	15,8	2,8
1,2095	16,8	3,4
1,21	18,6	3,4
1,2105	20,7	3,3
1,211	22,6	3,4
1,2115	23,8	4,0
1,212	23,8	5,2
1,2125	23,1	7,3
1,213	22,4	10,4
1,2135	22,1	14,2
1,214	22,0	17,7
1,2145	21,7	19,8
1,215	21,1	20,0
1,2155	20,1	18,2
1,216	18,9	14,7
1,2165	16,9	10,3
1,217	13,9	6,0
1,2175	10,3	2,3
1,218	6,8	-0,5
1,2185	3,6	-2,5
1,219	1,0	-4,2
1,2195	-1,1	-6,4
1,22	-2,5	-10,0
1,2205	-3,3	-15,0
1,221	-3,4	-20,5
1,2215	-2,9	-24,9
1,222	-1,9	-27,4
1,2225	-0,8	-27,9
1,223	0,1	-26,8
1,2235	0,6	-24,7
1,224	0,9	-21,5
1,2245	1,3	-17,5
1,225	2,1	-13,1
1,2255	3,4	-9,2
1,226	5,0	-6,4
1,2265	6,8	-4,8
1,227	8,8	-3,7
1,2275	10,3	-2,9
1,228	10,9	-2,5
1,2285	9,8	-2,2
1,229	7,4	-1,5
1,2295	4,4	-0,2
1,23	1,8	1,7
1,2305	0,3	3,8
1,231	-0,1	5,8
1,2315	0,6	7,0
1,232	2,1	6,6
1,2325	3,8	4,1
1,233	5,4	0,3
1,2335	6,8	-3,0
1,234	8,4	-4,4
1,2345	10,1	-3,8
1,235	11,8	-1,8
1,2355	13,3	0,5
1,236	14,3	2,5
1,2365	15,0	3,2
1,237	15,6	1,8
1,2375	16,1	-1,4
1,238	16,4	-5,3
1,2385	16,5	-8,6
1,239	16,5	-10,7
1,2395	16,3	-11,4
1,24	15,3	-11,2
1,2405	13,2	-10,0
1,241	10,0	-8,5
1,2415	6,7	-7,0
1,242	3,9	-6,2
1,2425	2,3	-6,0
1,243	1,7	-6,3
1,2435	1,8	-6,7
1,244	2,0	-7,0
1,2445	2,2	-7,1
1,245	1,8	-6,5
1,2455	1,0	-5,0
1,246	0,3	-2,5
1,2465	0,5	0,4
1,247	1,5	3,3
1,2475	3,3	6,0
1,248	5,5	8,1
1,2485	7,9	9,3
1,249	10,3	8,9
1,2495	12,4	6,7
1,25	13,8	3,7
1,2505	14,3	0,8
1,251	13,9	-1,2
1,2515	12,8	-2,2
1,252	11,4	-2,5
1,2525	10,1	-2,3
1,253	9,3	-2,2
1,2535	9,4	-2,9
1,254	10,2	-4,3
1,2545	11,3	-6,4
1,255	12,1	-8,4
1,2555	12,2	-9,8
1,256	11,6	-10,6
1,2565	10,4	-10,6
1,257	8,6	-9,8
1,2575	5,6	-8,4
1,258	1,6	-7,1
1,2585	-2,8	-6,8
1,259	-6,6	-7,5
1,2595	-9,0	-8,9
1,26	-9,8	-10,2
1,2605	-9,4	-11,0
1,261	-8,1	-11,2
1,2615	-6,6	-10,7
1,262	-5,3	-9,3
1,2625	-4,5	-7,4
1,263	-4,2	-5,6
1,2635	-4,4	-4,4
1,264	-4,9	-3,8
1,2645	-5,6	-3,6
1,265	-5,8	-3,9
1,2655	-5,0	-4,7
1,266	-3,0	-6,0
1,2665	-0,5	-7,8
1,267	1,8	-9,4
1,2675	3,6	-10,6
1,268	4,6	-11,2
1,2685	5,2	-11,3
1,269	5,4	-10,8
1,2695	5,9	-9,6
1,27	7,3	-8,1
1,2705	10,0	-6,8
1,271	13,6	-5,9
1,2715	17,3	-5,4
1,272	20,3	-5,3
1,2725	22,3	-5,7
1,273	23,6	-5,9
1,2735	24,1	-5,3
1,274	24,1	-3,5
1,2745	23,7	-0,7
1,275	23,5	2,0
1,2755	23,9	3,4
1,276	24,7	3,1
1,2765	25,0	1,3
1,277	24,1	-1,4
1,2775	22,2	-4,4
1,278	19,7	-6,6
1,2785	17,3	-7,0
1,279	15,4	-5,0
1,2795	14,3	-1,3
1,28	13,9	3,1
1,2805	13,9	6,5
1,281	14,1	8,5
1,2815	14,2	9,0
1,282	14,3	7,9
1,2825	14,7	5,6
1,283	15,0	2,2
1,2835	14,8	-1,5
1,284	13,9	-4,7
1,2845	12,3	-7,5
1,285	10,0	-10,3
1,2855	7,3	-13,3
1,286	4,6	-16,1
1,2865	2,8	-18,3
1,287	2,3	-19,7
1,2875	2,9	-20,5
1,288	4,0	-20,9
1,2885	5,1	-21,0
1,289	5,8	-20,8
1,2895	5,9	-20,5
1,29	5,6	-19,8
1,2905	4,6	-18,1
1,291	3,3	-15,4
1,2915	2,3	-12,1
1,292	2,2	-8,8
1,2925	3,2	-6,4
1,293	4,8	-5,0
1,2935	6,6	-4,6
1,294	8,2	-5,1
1,2945	9,6	-5,7
1,295	10,7	-5,8
1,2955	11,0	-4,9
1,296	10,5	-3,0
1,2965	9,5	-0,8
1,297	8,5	1,2
1,2975	7,8	2,3
1,298	7,9	2,6
1,2985	8,7	1,6
1,299	10,2	-0,8
1,2995	12,2	-4,5
1,3	13,9	-8,6
1,3005	14,9	-11,7
1,301	15,2	-13,2
1,3015	14,9	-13,0
1,302	14,3	-11,8
1,3025	13,2	-10,6
1,303	11,4	-10,3
1,3035	9,2	-11,5
1,304	7,5	-13,9
1,3045	6,9	-16,4
1,305	7,8	-18,1
1,3055	9,8	-18,1
1,306	12,1	-17,0
1,3065	13,7	-15,1
1,307	13,4	-12,7
1,3075	11,4	-9,9
1,308	8,5	-7,1
1,3085	5,5	-5,0
1,309	3,0	-4,1
1,3095	1,3	-4,5
1,31	0,6	-5,3
1,3105	1,4	-5,2
1,311	3,7	-3,7
1,3115	6,7	-0,7
1,312	9,6	3,1
1,3125	11,8	6,8
1,313	13,2	9,9
1,3135	13,9	12,0
1,314	14,3	12,8
1,3145	14,7	12,4
1,315	15,7	10,9
1,3155	17,3	8,4
1,316	18,9	5,0
1,3165	19,7	0,5
1,317	18,7	-4,7
1,3175	16,1	-10,0
1,318	12,4	-14,7
1,3185	8,6	-17,8
1,319	5,6	-18,7
1,3195	4,4	-17,3
1,32	5,1	-15,0
1,3205	6,8	-13,5
1,321	8,2	-13,9
1,3215	8,4	-15,9
1,322	7,4	-18,6
1,3225	5,8	-21,2
1,323	3,7	-23,1
1,3235	1,2	-23,9
1,324	-1,4	-23,4
1,3245	-3,7	-21,7
1,325	-5,0	-19,3
1,3255	-4,9	-16,6
1,326	-3,5	-14,2
1,3265	-1,1	-12,4
1,327	1,3	-11,3
1,3275	3,3	-11,0
1,328	4,4	-11,0
1,3285	4,8	-10,4
1,329	4,7	-8,8
1,3295	4,8	-6,2
1,33	5,4	-3,2
1,3305	6,0	-0,6
1,331	6,4	1,4
1,3315	6,8	3,2
1,332	7,8	4,6
1,3325	9,6	5,0
1,333	11,8	4,2
1,3335	13,7	2,8
1,334	14,9	1,7
1,3345	15,5	1,5
1,335	15,5	2,0
1,3355	14,6	2,8
1,336	12,8	3,3
1,3365	10,7	2,7
1,337	9,1	0,8
1,3375	8,6	-2,1
1,338	8,6	-5,7
1,3385	8,6	-9,8
1,339	7,8	-14,4
1,3395	6,5	-18,8
1,34	4,8	-22,0
1,3405	3,2	-22,9
1,341	2,1	-21,1
1,3415	1,8	-17,4
1,342	2,0	-13,3
1,3425	2,4	-10,1
1,343	2,8	-8,3
1,3435	3,0	-7,7
1,344	3,1	-8,2
1,3445	3,4	-9,2
1,345	3,8	-9,9
1,3455	4,1	-9,3
1,346	4,2	-7,6
1,3465	4,2	-5,2
1,347	4,3	-2,5
1,3475	4,8	-0,0
1,348	5,7	1,9
1,3485	6,8	2,6
1,349	8,2	1,2
1,3495	9,5	-2,2
1,35	10,4	-6,3
1,3505	10,9	-9,8
1,351	10,8	-12,1
1,3515	10,0	-13,3
1,352	9,0	-13,5
1,3525	8,0	-12,7
1,353	7,3	-11,3
1,3535	7,2	-10,3
1,354	7,3	-10,4
1,3545	7,5	-11,7
1,355	7,4	-13,7
1,3555	6,8	-16,0
1,356	5,9	-18,1
1,3565	4,8	-19,3
1,357	3,5	-18,8
1,3575	2,0	-16,6
1,358	0,4	-13,3
1,3585	-0,9	-9,9
1,359	-1,5	-7,4
1,3595	-1,2	-5,9
1,36	-0,2	-5,2
1,3605	1,3	-5,0
1,361	2,8	-5,1
1,3615	3,9	-5,4
1,362	4,3	-5,3
1,3625	4,0	-4,6
1,363	3,7	-3,3
1,3635	3,6	-1,9
1,364	3,7	-1,1
1,3645	4,2	-0,7
1,365	5,4	-0,7
1,3655	7,8	-1,0
1,366	11,4	-1,9
1,3665	15,3	-3,3
1,367	18,4	-4,6
1,3675	20,0	-5,3
1,368	19,9	-5,4
1,3685	18,3	-5,1
1,369	15,7	-4,4
1,3695	13,2	-3,7
1,37	11,4	-3,6
1,3705	10,7	-4,7
1,371	10,5	-6,9
1,3715	10,3	-9,7
1,372	9,7	-12,3
1,3725	8,8	-14,3
1,373	7,4	-15,7
1,3735	5,4	-16,6
1,374	2,9	-16,7
1,3745	0,3	-15,6
1,375	-1,8	-13,9
1,3755	-2,9	-12,5
1,376	-2,8	-12,6
1,3765	-2,3	-14,2
1,377	-2,0	-17,0
1,3775	-2,1	-19,9
1,378	-2,6	-21,6
1,3785	-3,0	-21,4
1,379	-3,5	-19,2
1,3795	-4,1	-15,8
1,38	-4,9	-12,5
1,3805	-5,7	-9,9
1,381	-6,4	-8,1
1,3815	-6,7	-7,2
1,382	-6,2	-7,5
1,3825	-4,8	-9,2
1,383	-2,7	-11,8
1,3835	-0,4	-13,9
1,384	1,4	-15,0
1,3845	2,5	-15,0
1,385	2,8	-14,6
1,3855	2,7	-14,1
1,386	2,9	-13,7
1,3865	3,8	-13,2
1,387	5,9	-13,2
1,3875	8,5	-13,9
1,388	11,0	-15,4
1,3885	12,7	-17,1
1,389	13,7	-18,5
1,3895	14,3	-19,2
1,39	15,1	-18,6
1,3905	16,2	-16,8
1,391	17,3	-13,9
1,3915	18,1	-9,9
1,392	19,3	-5,5
1,3925	20,8	-1,3
1,393	22,3	1,6
1,3935	22,7	2,5
1,394	21,6	1,7
1,3945	19,3	-0,0
1,395	16,3	-1,2
1,3955	12,9	-1,1
1,396	9,7	0,0
1,3965	6,7	1,3
1,397	4,1	1,8
1,3975	2,1	1,4
1,398	0,6	-0,2
1,3985	0,1	-3,0
1,399	0,7	-6,6
1,3995	2,2	-10,6
1,4	3,5	-14,5
1,4005	4,5	-17,8
1,401	5,1	-19,5
1,4015	5,8	-19,4
1,402	7,0	-17,7
1,4025	8,5	-15,2
1,403	10,0	-13,0
1,4035	11,0	-12,5
1,404	11,3	-14,2
1,4045	11,0	-17,1
1,405	10,6	-20,1
1,4055	10,0	-22,1
1,406	9,5	-23,2
1,4065	9,3	-23,3
1,407	9,3	-22,5
1,4075	9,2	-20,6
1,408	8,7	-17,8
1,4085	7,6	-15,2
1,409	6,1	-13,7
1,4095	4,4	-13,8
1,41	2,7	-15,1
1,4105	1,1	-17,1
1,411	-0,3	-19,3
1,4115	-1,3	-20,7
1,412	-1,8	-20,3
1,4125	-2,0	-18,1
1,413	-2,1	-14,6
1,4135	-2,2	-11,1
1,414	-2,6	-8,3
1,4145	-3,0	-6,7
1,415	-2,9	-6,2
1,4155	-1,7	-6,4
1,416	0,8	-6,9
1,4165	4,0	-7,6
1,417	6,5	-8,5
1,4175	7,6	-9,6
1,418	7,7	-10,0
1,4185	7,4	-9,0
1,419	7,1	-6,7
1,4195	6,2	-4,1
1,42	4,8	-2,7
1,4205	3,5	-3,3
1,421	2,9	-5,3
1,4215	3,2	-7,9
1,422	3,9	-10,4
1,4225	4,8	-12,4
1,423	5,8	-13,9
1,4235	6,4	-14,7
1,424	6,3	-14,9
1,4245	5,2	-14,8
1,425	3,6	-15,0
1,4255	2,1	-16,4
1,426	0,8	-19,1
1,4265	-0,1	-22,3
1,427	-0,5	-24,8
1,4275	-0,2	-25,5
1,428	1,0	-24,0
1,4285	2,7	-20,4
1,429	4,4	-15,4
1,4295	5,6	-9,8
1,43	5,9	-4,8
1,4305	5,3	-1,2
1,431	4,3	1,1
1,4315	3,8	2,3
1,432	4,5	2,6
1,4325	6,5	1,8
1,433	9,2	-0,0
1,4335	11,8	-2,3
1,434	13,5	-4,5
1,4345	13,7	-6,2
1,435	12,3	-7,6
1,4355	9,9	-8,8
1,436	7,1	-9,9
1,4365	4,7	-10,8
1,437	3,3	-11,9
1,4375	3,3	-13,3
1,438	3,9	-15,0
1,4385	4,3	-16,7
1,439	3,9	-18,5
1,4395	2,9	-20,2
1,44	1,8	-20,9
1,4405	0,7	-19,9
1,441	-0,3	-17,4
1,4415	-1,3	-14,3
1,442	-1,9	-11,8
1,4425	-1,7	-10,4
1,443	-0,6	-9,6
1,4435	1,2	-9,0
1,444	2,7	-8,5
1,4445	3,4	-8,2
1,445	3,4	-7,8
1,4455	3,3	-6,9
1,446	3,3	-5,2
1,4465	3,5	-3,2
1,447	3,5	-1,6
1,4475	3,1	-1,1
1,448	2,3	-1,5
1,4485	1,5	-2,5
1,449	1,1	-4,2
1,4495	1,3	-6,5
1,45	1,5	-9,4
1,4505	1,3	-12,2
1,451	0,3	-14,2
1,4515	-1,2	-15,1
1,452	-2,5	-15,1
1,4525	-3,3	-14,6
1,453	-3,6	-14,3
1,4535	-3,7	-14,6
1,454	-3,6	-15,9
1,4545	-3,4	-17,9
1,455	-3,3	-20,2
1,4555	-3,0	-22,2
1,456	-2,9	-23,9
1,4565	-2,9	-25,1
1,457	-3,2	-25,4
1,4575	-3,7	-24,2
1,458	-4,0	-21,4
1,4585	-3,6	-17,7
1,459	-2,2	-14,3
1,4595	0,4	-11,6
1,46	3,9	-9,8
1,4605	7,8	-8,5
1,461	11,7	-7,3
1,4615	14,8	-5,8
1,462	16,7	-3,7
1,4625	17,3	-1,0
1,463	16,8	1,7
1,4635	15,6	3,4
1,464	14,1	3,9
1,4645	12,8	3,3
1,465	12,1	1,8
1,4655	12,1	-0,6
1,466	12,7	-4,2
1,4665	13,5	-8,4
1,467	14,0	-12,1
1,4675	13,8	-14,3
1,468	12,8	-14,9
1,4685	11,1	-14,3
1,469	9,1	-12,9
1,4695	6,9	-11,2
1,47	4,7	-10,1
1,4705	2,8	-10,4
1,471	1,5	-12,2
1,4715	0,8	-14,5
1,472	0,8	-16,5
1,4725	1,6	-17,9
1,473	2,7	-18,8
1,4735	3,3	-19,1
1,474	3,1	-18,8
1,4745	2,3	-17,5
1,475	1,5	-15,6
1,4755	1,2	-13,7
1,476	1,2	-12,2
1,4765	1,5	-11,4
1,477	2,1	-11,1
1,4775	2,9	-10,9
1,478	3,9	-10,5
1,4785	4,5	-9,5
1,479	4,6	-7,4
1,4795	4,5	-4,2
1,48	4,6	-0,5
1,4805	5,0	2,9
1,481	5,5	5,3
1,4815	5,7	6,5
1,482	5,5	6,1
1,4825	4,9	4,0
1,483	4,1	0,5
1,4835	3,3	-3,4
1,484	2,3	-6,9
1,4845	1,0	-9,3
1,485	-0,6	-10,5
1,4855	-2,5	-10,8
1,486	-4,6	-10,5
1,4865	-6,5	-10,4
1,487	-8,0	-11,2
1,4875	-8,9	-13,4
1,488	-9,7	-16,8
1,4885	-10,5	-20,7
1,489	-11,1	-24,1
1,4895	-11,1	-26,3
1,49	-10,3	-26,9
1,4905	-8,7	-25,3
1,491	-6,4	-21,4
1,4915	-3,8	-15,9
1,492	-1,5	-10,4
1,4925	0,1	-6,4
1,493	1,3	-4,7
1,4935	2,4	-4,4
1,494	4,0	-4,3
1,4945	5,9	-3,7
1,495	7,7	-2,3
1,4955	8,9	-0,1
1,496	9,1	2,2
1,4965	8,4	4,0
1,497	7,1	4,4
1,4975	5,4	3,3
1,498	3,6	1,1
1,4985	2,2	-1,4
1,499	1,8	-3,7
1,4995	2,3	-5,9
1,5	3,5	-8,1
1,5005	4,7	-9,7
1,501	5,6	-9,9
1,5015	6,5	-8,2
1,502	7,2	-5,0
1,5025	7,5	-1,6
1,503	7,4	0,9
1,5035	7,2	1,9
1,504	7,5	1,3
1,5045	8,7	-0,5
1,505	10,8	-2,7
1,5055	13,2	-4,6
1,506	15,4	-5,8
1,5065	16,7	-6,4
1,507	16,4	-6,8
1,5075	13,8	-7,6
1,508	9,1	-9,3
1,5085	3,1	-12,2
1,509	-2,4	-15,3
1,5095	-6,0	-17,8
1,51	-7,5	-18,6
1,5105	-7,5	-18,0
1,511	-7,0	-17,1
1,5115	-6,8	-16,3
1,512	-7,3	-15,3
1,5125	-7,8	-13,3
1,513	-8,0	-10,5
1,5135	-7,1	-6,9
1,514	-5,6	-3,2
1,5145	-4,0	0,1
1,515	-2,9	2,2
1,5155	-2,5	2,3
1,516	-2,2	0,5
1,5165	-1,9	-2,6
1,517	-1,7	-5,8
1,5175	-1,8	-8,1
1,518	-2,3	-9,0
1,5185	-3,4	-8,9
1,519	-4,5	-8,1
1,5195	-5,0	-7,1
1,52	-4,9	-6,4
1,5205	-4,2	-6,7
1,521	-3,3	-8,0
1,5215	-2,5	-10,1
1,522	-1,8	-12,2
1,5225	-1,3	-13,8
1,523	-1,2	-14,8
1,5235	-1,7	-15,0
1,524	-2,6	-13,9
1,5245	-3,7	-11,5
1,525	-4,7	-8,3
1,5255	-4,9	-5,4
1,526	-4,4	-3,5
1,5265	-3,3	-2,5
1,527	-1,7	-2,1
1,5275	0,4	-1,7
1,528	3,3	-1,1
1,5285	6,2	-0,3
1,529	8,2	0,5
1,5295	8,3	0,4
1,53	6,7	-0,8
1,5305	3,9	-2,7
1,531	1,1	-4,5
1,5315	-0,8	-5,5
1,532	-1,0	-5,3
1,5325	0,7	-4,6
1,533	3,7	-4,0
1,5335	6,9	-4,1
1,534	9,2	-4,7
1,5345	9,8	-5,6
1,535	9,2	-6,6
1,5355	7,5	-7,2
1,536	5,0	-7,6
1,5365	2,0	-7,9
1,537	-1,2	-9,1
1,5375	-3,8	-11,6
1,538	-5,6	-14,9
1,5385	-6,5	-18,4
1,539	-6,7	-21,3
1,5395	-6,4	-23,1
1,54	-5,8	-23,5
1,5405	-5,4	-22,8
1,541	-5,7	-20,8
1,5415	-6,5	-18,3
1,542	-7,3	-15,8
1,5425	-8,0	-13,9
1,543	-8,3	-12,8
1,5435	-8,2	-12,0
1,544	-7,5	-11,0
1,5445	-6,2	-9,7
1,545	-5,0	-7,8
1,5455	-4,6	-5,4
1,546	-5,3	-2,8
1,5465	-6,8	-0,6
1,547	-8,7	1,1
1,5475	-10,1	2,1
1,548	-10,8	2,7
1,5485	-10,5	2,7
1,549	-9,1	1,8
1,5495	-6,9	0,0
1,55	-4,4	-2,3
1,5505	-2,4	-4,3
1,551	-1,5	-5,4
1,5515	-1,5	-5,6
1,552	-2,1	-5,4
1,5525	-3,0	-5,5
1,553	-3,9	-6,1
1,5535	-4,0	-7,2
1,554	-2,8	-8,8
1,5545	-0,7	-10,9
1,555	1,7	-13,3
1,5555	3,6	-15,2
1,556	5,3	-16,1
1,5565	6,9	-15,7
1,557	8,3	-14,1
1,5575	9,0	-11,6
1,558	9,0	-8,5
1,5585	8,7	-5,5
1,559	8,5	-3,2
1,5595	8,5	-1,8
1,56	8,4	-1,6
1,5605	8,0	-2,4
1,561	7,3	-4,0
1,5615	6,7	-5,3
1,562	6,2	-5,6
1,5625	5,9	-4,6
1,563	5,9	-2,5
1,5635	6,2	-0,0
1,564	6,5	2,3
1,5645	6,5	4,0
1,565	5,8	4,5
1,5655	4,8	3,8
1,566	3,8	1,8
1,5665	3,3	-0,7
1,567	3,0	-3,3
1,5675	2,3	-5,4
1,568	0,8	-6,9
1,5685	-1,2	-7,8
1,569	-3,2	-7,8
1,5695	-4,5	-6,9
1,57	-4,9	-5,4
1,5705	-3,8	-4,2
1,571	-1,6	-3,7
1,5715	0,8	-4,3
1,572	2,4	-5,4
1,5725	2,9	-6,8
1,573	2,5	-8,3
1,5735	1,4	-9,3
1,574	-0,4	-9,5
1,5745	-2,5	-8,7
1,575	-4,5	-7,4
1,5755	-5,8	-6,7
1,576	-6,5	-6,9
1,5765	-6,5	-8,3
1,577	-6,3	-9,8
1,5775	-5,7	-10,8
1,578	-4,8	-10,8
1,5785	-3,7	-9,7
1,579	-2,4	-7,4
1,5795	-1,1	-4,3
1,58	-0,1	-1,1
1,5805	0,5	1,3
1,581	0,7	2,9
1,5815	0,7	3,6
1,582	1,1	3,2
1,5825	1,9	1,6
1,583	3,3	-0,9
1,5835	4,6	-3,8
1,584	5,3	-6,4
1,5845	5,0	-8,1
1,585	4,0	-8,9
1,5855	2,5	-9,0
1,586	0,9	-8,6
1,5865	-0,6	-8,0
1,587	-1,4	-8,0
1,5875	-1,4	-9,0
1,588	-0,4	-10,7
1,5885	1,3	-12,4
1,589	3,1	-13,4
1,5895	4,4	-14,1
1,59	4,8	-14,4
1,5905	4,1	-14,4
1,591	2,5	-13,7
1,5915	0,6	-12,0
1,592	-0,8	-10,0
1,5925	-1,0	-8,1
1,593	0,2	-6,8
1,5935	2,3	-5,9
1,594	4,3	-5,2
1,5945	5,8	-4,5
1,595	6,8	-3,4
1,5955	7,5	-1,8
1,596	7,6	0,4
1,5965	7,1	2,8
1,597	5,6	4,6
1,5975	3,2	5,3
1,598	-0,1	4,4
1,5985	-3,7	2,3
1,599	-6,7	-0,8
1,5995	-8,3	-4,1
1,6	-8,5	-7,5
1,6005	-8,1	-10,1
1,601	-7,9	-11,3
1,6015	-8,1	-10,6
1,602	-7,9	-8,0
1,6025	-6,9	-3,7
1,603	-5,3	1,3
1,6035	-3,4	5,4
1,604	-2,1	6,8
1,6045	-1,5	5,2
1,605	-1,7	1,8
1,6055	-1,9	-1,9
1,606	-1,8	-4,8
1,6065	-1,1	-6,6
1,607	-0,3	-7,2
1,6075	0,4	-6,7
1,608	0,4	-6,1
1,6085	-0,4	-6,6
1,609	-2,0	-8,8
1,6095	-3,8	-11,9
1,61	-5,2	-14,9
1,6105	-5,8	-16,8
1,611	-5,8	-17,8
1,6115	-5,5	-18,1
1,612	-5,3	-17,5
1,6125	-5,4	-15,8
1,613	-5,6	-12,9
1,6135	-5,6	-9,5
1,614	-5,2	-6,3
1,6145	-4,8	-4,0
1,615	-4,5	-3,0
1,6155	-4,4	-3,7
1,616	-4,5	-6,2
1,6165	-4,9	-10,0
1,617	-5,7	-13,9
1,6175	-6,7	-16,6
1,618	-7,6	-17,8
1,6185	-8,2	-17,6
1,619	-8,5	-16,8
1,6195	-8,4	-15,6
1,62	-7,6	-14,3
1,6205	-5,6	-13,4
1,621	-2,7	-13,3
1,6215	0,4	-14,1
1,622	2,6	-15,3
1,6225	3,7	-16,3
1,623	4,3	-16,5
1,6235	4,6	-15,7
1,624	4,2	-13,9
1,6245	2,9	-11,3
1,625	1,0	-8,5
1,6255	-0,8	-6,2
1,626	-1,9	-5,0
1,6265	-2,5	-5,1
1,627	-2,6	-6,1
1,6275	-2,4	-7,3
1,628	-1,9	-8,4
1,6285	-1,5	-9,1
1,629	-1,4	-8,8
1,6295	-1,7	-7,3
1,63	-2,5	-5,2
1,6305	-3,6	-3,3
1,631	-4,4	-1,7
1,6315	-4,7	-0,5
1,632	-4,0	0,2
1,6325	-2,8	-0,1
1,633	-1,8	-1,8
1,6335	-1,5	-4,5
1,634	-1,9	-7,3
1,6345	-2,8	-9,4
1,635	-3,4	-10,5
1,6355	-3,8	-10,8
1,636	-3,8	-10,6
1,6365	-3,3	-9,9
1,637	-2,4	-9,3
1,6375	-1,1	-9,3
1,638	0,5	-9,9
1,6385	2,2	-10,8
1,639	3,6	-11,6
1,6395	5,0	-12,2
1,64	6,6	-12,0
1,6405	8,4	-10,7
1,641	10,1	-8,1
1,6415	11,5	-4,7
1,642	12,3	-1,5
1,6425	12,8	0,8
1,643	13,1	1,7
1,6435	13,4	1,5
1,644	13,3	0,3
1,6445	12,5	-1,6
1,645	10,8	-4,0
1,6455	8,4	-5,8
1,646	5,4	-6,3
1,6465	2,3	-5,2
1,647	-0,4	-3,1
1,6475	-2,2	-0,7
1,648	-2,9	1,7
1,6485	-3,0	3,5
1,649	-3,0	4,2
1,6495	-3,1	3,3
1,65	-3,3	1,1
1,6505	-3,7	-1,8
1,651	-3,9	-4,3
1,6515	-4,0	-6,5
1,652	-4,1	-8,3
1,6525	-4,5	-10,3
1,653	-5,1	-12,4
1,6535	-5,4	-14,5
1,654	-5,1	-16,2
1,6545	-4,0	-17,6
1,655	-2,2	-18,6
1,6555	-0,1	-19,2
1,656	2,2	-19,0
1,6565	4,7	-18,0
1,657	7,1	-15,9
1,6575	8,9	-12,7
1,658	9,8	-8,8
1,6585	9,4	-5,5
1,659	7,9	-3,8
1,6595	5,4	-4,3
1,66	2,2	-6,4
1,6605	-1,0	-9,1
1,661	-3,4	-11,7
1,6615	-5,0	-14,0
1,662	-5,8	-15,9
1,6625	-6,6	-17,1
1,663	-7,7	-17,4
1,6635	-8,9	-17,0
1,664	-10,0	-15,9
1,6645	-10,4	-14,0
1,665	-10,1	-11,5
1,6655	-8,5	-8,9
1,666	-5,8	-7,0
1,6665	-1,9	-6,1
1,667	2,0	-6,2
1,6675	4,8	-6,8
1,668	6,0	-7,9
1,6685	5,6	-8,9
1,669	4,3	-9,9
1,6695	2,9	-10,6
1,67	1,6	-11,6
1,6705	0,7	-13,3
1,671	0,3	-15,8
1,6715	0,9	-18,8
1,672	2,3	-21,2
1,6725	4,3	-22,4
1,673	6,2	-22,3
1,6735	7,6	-20,9
1,674	8,1	-18,7
1,6745	7,5	-15,8
1,675	6,2	-12,5
1,6755	4,9	-9,5
1,676	4,1	-7,6
1,6765	3,7	-6,8
1,677	3,3	-7,1
1,6775	2,9	-8,0
1,678	2,4	-9,3
1,6785	1,8	-10,3
1,679	0,8	-10,6
1,6795	-0,8	-10,3
1,68	-3,0	-9,6
1,6805	-5,3	-8,8
1,681	-7,1	-8,2
1,6815	-8,3	-7,5
1,682	-8,7	-7,2
1,6825	-8,2	-7,6
1,683	-7,3	-9,1
1,6835	-6,4	-11,6
1,684	-6,5	-14,3
1,6845	-7,5	-16,3
1,685	-8,9	-17,3
1,6855	-10,2	-17,5
1,686	-10,8	-16,9
1,6865	-10,3	-15,8
1,687	-8,2	-14,3
1,6875	-4,7	-13,3
1,688	-0,6	-13,2
1,6885	2,9	-13,8
1,689	5,1	-14,8
1,6895	6,0	-15,7
1,69	6,1	-16,2
1,6905	5,6	-16,1
1,691	4,9	-14,8
1,6915	4,6	-12,4
1,692	4,7	-9,4
1,6925	5,3	-6,7
1,693	6,5	-4,9
1,6935	7,8	-4,1
1,694	8,7	-4,3
1,6945	8,9	-5,2
1,695	8,5	-6,2
1,6955	7,5	-6,8
1,696	6,1	-6,3
1,6965	4,4	-5,0
1,697	2,7	-3,4
1,6975	1,2	-2,2
1,698	0,3	-1,7
1,6985	-0,0	-2,0
1,699	0,3	-3,2
1,6995	1,5	-5,1
1,7	3,5	-7,1
1,7005	5,9	-8,2
1,701	8,4	-7,3
1,7015	10,5	-4,9
1,702	11,8	-1,9
1,7025	12,5	0,3
1,703	13,0	1,4
1,7035	13,7	1,7
1,704	15,3	1,0
1,7045	17,8	-0,4
1,705	20,6	-2,5
1,7055	23,3	-4,8
1,706	25,5	-7,1
1,7065	27,7	-8,9
1,707	29,6	-10,1
1,7075	30,4	-11,0
1,708	29,4	-11,6
1,7085	26,5	-11,5
1,709	22,7	-10,4
1,7095	19,6	-8,1
1,71	18,3	-5,1
1,7105	18,8	-2,1
1,711	20,1	0,3
1,7115	21,2	2,0
1,712	21,3	3,6
1,7125	19,8	5,3
1,713	16,8	7,0
1,7135	12,4	8,1
1,714	7,8	8,0
1,7145	3,4	6,6
1,715	-0,3	3,8
1,7155	-3,2	0,1
1,716	-5,0	-4,6
1,7165	-6,1	-9,8
1,717	-7,1	-14,8
1,7175	-8,2	-18,7
1,718	-8,9	-20,4
1,7185	-8,7	-20,1
1,719	-7,4	-18,6
1,7195	-5,5	-16,8
1,72	-3,1	-15,4
1,7205	-0,4	-15,2
1,721	2,2	-16,2
1,7215	4,1	-18,1
1,722	5,0	-20,1
1,7225	5,0	-21,9
1,723	4,0	-23,8
1,7235	2,3	-25,5
1,724	-0,1	-26,3
1,7245	-2,7	-25,9
1,725	-5,5	-24,2
1,7255	-7,9	-21,9
1,726	-9,4	-19,8
1,7265	-9,6	-18,7
1,727	-8,3	-18,1
1,7275	-5,6	-17,7
1,728	-2,1	-17,1
1,7285	1,1	-16,2
1,729	3,0	-15,1
1,7295	3,4	-13,7
1,73	2,8	-11,9
1,7305	2,0	-10,1
1,731	1,6	-8,6
1,7315	2,2	-7,5
1,732	3,5	-6,9
1,7325	5,4	-6,8
1,733	7,8	-7,6
1,7335	9,8	-9,4
1,734	10,9	-11,5
1,7345	10,9	-13,5
1,735	9,9	-14,9
1,7355	8,9	-15,5
1,736	8,3	-15,3
1,7365	8,1	-14,4
1,737	8,2	-13,7
1,7375	8,4	-14,1
1,738	8,8	-15,5
1,7385	9,2	-17,5
1,739	9,4	-19,1
1,7395	9,7	-20,0
1,74	10,3	-20,0
1,7405	11,1	-18,8
1,741	11,8	-16,5
1,7415	12,0	-13,3
1,742	11,9	-9,6
1,7425	12,2	-5,9
1,743	13,1	-2,9
1,7435	14,3	-1,1
1,744	15,0	-0,8
1,7445	14,7	-1,7
1,745	13,5	-3,2
1,7455	11,6	-4,1
1,746	9,3	-3,8
1,7465	7,1	-2,3
1,747	5,7	-0,7
1,7475	5,1	-0,1
1,748	4,8	-0,9
1,7485	4,5	-2,8
1,749	4,1	-5,5
1,7495	3,9	-8,8
1,75	4,1	-12,3
1,7505	4,6	-15,2
1,751	5,1	-16,9
1,7515	5,4	-17,7
1,752	5,4	-17,8
1,7525	5,4	-17,3
1,753	5,5	-16,4
1,7535	6,2	-15,4
1,754	7,5	-15,3
1,7545	9,1	-16,4
1,755	10,4	-18,5
1,7555	11,2	-21,0
1,756	11,6	-23,2
1,7565	12,0	-24,6
1,757	12,3	-25,0
1,7575	12,1	-24,3
1,758	11,1	-22,3
1,7585	9,4	-19,3
1,759	7,7	-16,3
1,7595	6,4	-14,2
1,76	6,1	-13,2
1,7605	6,4	-13,1
1,761	7,3	-13,3
1,7615	8,6	-13,1
1,762	10,5	-12,1
1,7625	12,5	-10,1
1,763	14,1	-7,3
1,7635	14,6	-4,7
1,764	14,0	-2,6
1,7645	12,8	-1,3
1,765	11,3	-0,5
1,7655	10,5	-0,4
1,766	10,5	-0,9
1,7665	11,3	-2,4
1,767	11,9	-4,6
1,7675	11,6	-7,1
1,768	10,2	-9,5
1,7685	8,1	-11,3
1,769	5,7	-12,5
1,7695	3,5	-12,9
1,77	2,3	-12,8
1,7705	2,7	-12,5
1,771	4,6	-12,4
1,7715	7,2	-12,9
1,772	9,5	-14,0
1,7725	11,2	-15,5
1,773	12,3	-16,8
1,7735	13,0	-17,3
1,774	13,6	-16,5
1,7745	14,3	-14,0
1,775	15,2	-10,2
1,7755	16,6	-6,0
1,776	18,2	-2,9
1,7765	19,8	-1,9
1,777	21,0	-2,9
1,7775	21,8	-5,0
1,778	22,1	-7,5
1,7785	21,8	-9,5
1,779	20,8	-10,3
1,7795	19,0	-9,7
1,78	16,9	-7,9
1,7805	15,1	-5,8
1,781	13,8	-4,0
1,7815	12,8	-2,6
1,782	12,1	-1,8
1,7825	12,1	-1,8
1,783	12,8	-2,7
1,7835	14,1	-4,2
1,784	15,6	-5,2
1,7845	17,0	-5,0
1,785	17,9	-4,0
1,7855	18,0	-2,7
1,786	17,3	-1,8
1,7865	16,2	-1,4
1,787	15,5	-1,7
1,7875	15,4	-3,0
1,788	15,5	-5,4
1,7885	15,0	-8,8
1,789	13,7	-12,4
1,7895	11,8	-15,5
1,79	9,8	-17,7
1,7905	7,9	-19,6
1,791	5,6	-21,2
1,7915	2,9	-22,2
1,792	0,1	-22,4
1,7925	-1,7	-21,5
1,793	-2,0	-20,0
1,7935	-1,3	-18,5
1,794	-0,5	-17,5
1,7945	-0,2	-17,3
1,795	-0,4	-17,8
1,7955	-0,6	-17,8
1,796	-0,8	-16,9
1,7965	-0,9	-14,9
1,797	-0,6	-12,4
1,7975	0,5	-9,8
1,798	2,2	-7,4
1,7985	4,4	-5,6
1,799	6,9	-4,6
1,7995	9,5	-4,9
1,8	11,7	-6,7
1,8005	12,9	-9,3
1,801	13,3	-11,8
1,8015	13,2	-13,4
1,802	12,8	-13,6
1,8025	12,1	-12,8
1,803	11,1	-11,4
1,8035	10,3	-10,3
1,804	10,1	-10,2
1,8045	10,8	-11,2
1,805	11,8	-13,0
1,8055	12,6	-15,0
1,806	12,6	-16,7
1,8065	12,2	-17,7
1,807	12,1	-17,5
1,8075	12,5	-15,8
1,808	13,1	-12,8
1,8085	13,2	-9,4
1,809	12,8	-7,0
1,8095	12,1	-6,3
1,81	11,4	-7,0
1,8105	10,7	-8,3
1,811	10,3	-9,8
1,8115	10,0	-10,7
1,812	9,8	-10,8
1,8125	9,4	-9,9
1,813	8,7	-8,3
1,8135	7,9	-6,6
1,814	7,3	-5,1
1,8145	7,0	-3,6
1,815	7,3	-2,2
1,8155	8,5	-0,9
1,816	10,8	0,4
1,8165	13,6	1,5
1,817	16,0	2,0
1,8175	17,4	2,2
1,818	17,4	2,5
1,8185	16,8	3,2
1,819	15,8	4,2
1,8195	14,9	5,0
1,82	13,8	5,3
1,8205	12,8	4,4
1,821	11,9	2,2
1,8215	11,5	-1,2
1,822	11,9	-5,1
1,8225	12,8	-9,3
1,823	13,6	-13,3
1,8235	13,8	-16,5
1,824	12,6	-18,3
1,8245	9,9	-18,3
1,825	6,3	-16,3
1,8255	2,8	-13,4
1,826	0,1	-10,8
1,8265	-1,4	-9,2
1,827	-2,1	-8,8
1,8275	-1,9	-9,1
1,828	-1,0	-9,8
1,8285	0,4	-10,2
1,829	1,8	-9,9
1,8295	2,5	-8,6
1,83	2,3	-6,5
1,8305	1,4	-4,1
1,831	0,4	-1,9
1,8315	-0,4	-0,2
1,832	-0,7	1,0
1,8325	-0,2	1,3
1,833	1,4	0,5
1,8335	3,8	-1,1
1,834	6,3	-2,9
1,8345	8,3	-4,3
1,835	9,0	-5,0
1,8355	8,4	-5,8
1,836	6,8	-6,8
1,8365	4,8	-7,7
1,837	3,2	-8,3
1,8375	2,5	-8,8
1,838	2,7	-9,2
1,8385	3,1	-9,8
1,839	3,1	-10,6
1,8395	2,3	-11,8
1,84	0,6	-13,5
1,8405	-1,8	-15,0
1,841	-4,6	-15,8
1,8415	-7,5	-15,2
1,842	-9,6	-13,4
1,8425	-10,4	-11,2
1,843	-9,8	-9,4
1,8435	-8,2	-8,5
1,844	-6,3	-8,4
1,8445	-4,4	-8,8
1,845	-2,6	-9,1
1,8455	-0,8	-8,6
1,846	0,8	-6,7
1,8465	1,9	-3,7
1,847	2,5	-0,3
1,8475	2,7	2,4
1,848	2,6	4,1
1,8485	2,6	4,9
1,849	3,2	5,1
1,8495	4,8	4,5
1,85	7,1	3,0
1,8505	9,6	0,8
1,851	11,6	-1,2
1,8515	12,8	-2,3
1,852	13,3	-2,2
1,8525	13,4	-1,2
1,853	12,8	0,1
1,8535	11,3	0,8
1,854	8,9	0,0
1,8545	6,1	-2,4
1,855	3,3	-5,9
1,8555	1,3	-9,2
1,856	0,6	-11,2
1,8565	1,4	-11,8
1,857	3,1	-10,9
1,8575	4,8	-8,7
1,858	5,9	-5,5
1,8585	6,3	-1,7
1,859	6,5	1,7
1,8595	6,7	4,1
1,86	7,1	5,3
1,8605	7,7	5,2
1,861	8,1	4,1
1,8615	8,3	2,0
1,862	7,9	-0,7
1,8625	6,8	-3,5
1,863	4,8	-5,9
1,8635	2,3	-7,4
1,864	-0,0	-7,7
1,8645	-1,6	-6,9
1,865	-2,0	-5,4
1,8655	-1,4	-3,8
1,866	0,1	-2,8
1,8665	2,3	-2,8
1,867	4,2	-3,9
1,8675	5,3	-5,1
1,868	5,7	-5,8
1,8685	6,0	-5,4
1,869	6,6	-4,1
1,8695	7,7	-2,3
1,87	8,9	-0,4
1,8705	10,6	1,0
1,871	12,9	1,8
1,8715	16,0	2,5
1,872	19,3	3,2
1,8725	22,3	4,0
1,873	24,3	4,4
1,8735	25,3	3,9
1,874	25,1	2,8
1,8745	23,9	1,6
1,875	21,9	0,6
1,8755	19,3	-0,4
1,876	16,3	-2,1
1,8765	12,6	-5,2
1,877	7,8	-9,8
1,8775	2,3	-15,5
1,878	-3,2	-21,5
1,8785	-7,9	-26,8
1,879	-11,5	-30,2
1,8795	-13,8	-30,7
1,88	-14,8	-28,2
1,8805	-14,5	-23,6
1,881	-13,2	-18,2
1,8815	-11,1	-12,9
1,882	-8,7	-8,4
1,8825	-5,9	-5,4
1,883	-2,8	-4,3
1,8835	0,9	-4,8
1,884	4,7	-5,7
1,8845	7,6	-6,0
1,885	9,3	-5,6
1,8855	9,8	-4,8
1,886	9,3	-3,7
1,8865	8,7	-2,6
1,887	8,2	-1,6
1,8875	8,4	-1,3
1,888	9,4	-1,8
1,8885	10,9	-2,8
1,889	12,3	-3,9
1,8895	13,2	-4,7
1,89	13,6	-5,3
1,8905	13,3	-5,5
1,891	12,7	-4,9
1,8915	11,7	-3,0
1,892	10,8	0,1
1,8925	10,4	3,8
1,893	10,9	6,9
1,8935	12,3	8,8
1,894	13,9	9,2
1,8945	14,6	7,6
1,895	13,4	4,3
1,8955	10,0	-0,2
1,896	5,0	-4,4
1,8965	-0,7	-7,5
1,897	-5,8	-9,2
1,8975	-9,9	-10,0
1,898	-12,7	-10,2
1,8985	-13,8	-9,8
1,899	-13,2	-8,9
1,8995	-10,8	-7,8
1,9	-7,3	-7,3
1,9005	-3,8	-7,5
1,901	-1,2	-8,1
1,9015	-0,1	-8,7
1,902	-0,2	-8,9
1,9025	-1,0	-8,9
1,903	-1,8	-8,5
1,9035	-2,2	-7,7
1,904	-1,5	-6,7
1,9045	0,1	-6,2
1,905	1,8	-6,5
1,9055	2,9	-7,8
1,906	2,8	-9,7
1,9065	1,7	-11,9
1,907	0,4	-14,1
1,9075	-0,8	-15,7
1,908	-1,4	-16,2
1,9085	-1,7	-15,1
1,909	-1,3	-12,8
1,9095	-0,1	-10,0
1,91	2,0	-7,7
1,9105	4,3	-6,3
1,911	6,3	-5,8
1,9115	7,5	-6,1
1,912	8,2	-6,2
1,9125	8,4	-5,3
1,913	8,2	-3,1
1,9135	7,5	-0,2
1,914	6,2	2,5
1,9145	4,4	4,3
1,915	2,6	5,2
1,9155	1,5	5,4
1,916	1,7	4,9
1,9165	3,0	3,7
1,917	4,7	2,0
1,9175	5,9	0,3
1,918	5,9	-0,8
1,9185	4,5	-1,3
1,919	2,2	-1,2
1,9195	-0,5	-0,5
1,92	-3,1	0,5
1,9205	-4,9	1,2
1,921	-5,9	0,9
1,9215	-6,5	-0,5
1,922	-7,4	-2,9
1,9225	-8,7	-5,6
1,923	-10,0	-8,0
1,9235	-11,0	-9,7
1,924	-11,7	-10,5
1,9245	-12,1	-10,1
1,925	-12,4	-8,5
1,9255	-12,5	-6,0
1,926	-12,2	-3,3
1,9265	-11,3	-1,3
1,927	-9,7	-0,1
1,9275	-7,6	0,5
1,928	-5,5	0,7
1,9285	-3,5	0,8
1,929	-2,1	1,1
1,9295	-1,4	2,0
1,93	-1,4	3,4
1,9305	-1,5	5,3
1,931	-1,0	7,6
1,9315	0,3	10,7
1,932	2,3	13,8
1,9325	4,4	15,8
1,933	6,4	15,6
1,9335	8,4	13,2
1,934	10,0	9,4
1,9345	11,1	5,3
1,935	11,2	1,8
1,9355	10,7	-0,8
1,936	10,1	-2,4
1,9365	9,6	-3,8
1,937	9,4	-5,5
1,9375	9,7	-8,2
1,938	10,7	-11,6
1,9385	12,1	-15,0
1,939	13,5	-17,4
1,9395	14,5	-18,5
1,94	15,0	-18,3
1,9405	15,1	-17,0
1,941	14,9	-14,8
1,9415	14,1	-11,8
1,942	13,2	-8,3
1,9425	12,5	-5,1
1,943	12,4	-3,0
1,9435	12,9	-2,3
1,944	13,5	-2,4
1,9445	13,7	-3,0
1,945	13,2	-3,6
1,9455	11,8	-4,1
1,946	9,8	-4,1
1,9465	7,3	-3,4
1,947	4,9	-2,1
1,9475	2,8	-0,2
1,948	1,3	1,6
1,9485	0,5	3,1
1,949	0,4	3,8
1,9495	0,8	3,2
1,95	1,4	1,1
1,9505	2,1	-1,6
1,951	2,7	-3,7
1,9515	3,1	-4,6
1,952	3,5	-4,3
1,9525	3,9	-3,5
1,953	4,3	-2,9
1,9535	4,5	-2,8
1,954	4,7	-3,7
1,9545	5,0	-5,4
1,955	5,5	-8,0
1,9555	6,2	-10,4
1,956	6,7	-12,0
1,9565	7,1	-12,7
1,957	7,7	-12,7
1,9575	8,1	-12,3
1,958	7,9	-11,2
1,9585	6,7	-9,1
1,959	4,9	-6,6
1,9595	3,2	-4,5
1,96	2,1	-3,3
1,9605	1,9	-3,2
1,961	2,4	-3,5
1,9615	3,5	-3,9
1,962	5,2	-3,8
1,9625	7,1	-2,5
1,963	8,7	0,3
1,9635	9,5	3,9
1,964	9,6	7,5
1,9645	8,9	10,1
1,965	7,5	10,8
1,9655	5,3	9,2
1,966	2,6	5,2
1,9665	0,4	-0,1
1,967	-0,7	-4,9
1,9675	-0,4	-7,9
1,968	0,6	-8,4
1,9685	1,6	-7,0
1,969	2,5	-4,9
1,9695	3,1	-2,9
1,97	3,8	-0,8
1,9705	5,0	1,4
1,971	6,9	3,4
1,9715	9,7	4,3
1,972	12,7	3,7
1,9725	15,3	1,5
1,973	17,0	-1,9
1,9735	17,4	-5,6
1,974	16,4	-8,5
1,9745	14,6	-9,4
1,975	12,3	-8,1
1,9755	10,1	-5,7
1,976	7,9	-4,0
1,9765	5,3	-4,7
1,977	2,0	-8,2
1,9775	-2,3	-13,8
1,978	-6,8	-19,7
1,9785	-10,8	-24,2
1,979	-13,3	-25,8
1,9795	-14,5	-24,6
1,98	-14,8	-21,3
1,9805	-14,3	-17,4
1,981	-13,0	-13,8
1,9815	-10,8	-10,7
1,982	-7,3	-8,0
1,9825	-2,9	-5,8
1,983	2,3	-4,2
1,9835	7,9	-3,1
1,984	13,1	-2,1
1,9845	17,4	-0,8
1,985	20,3	0,9
1,9855	22,0	3,0
1,986	22,5	4,9
1,9865	22,5	6,3
1,987	22,5	7,0
1,9875	22,9	6,7
1,988	23,8	5,6
1,9885	24,8	3,9
1,989	25,2	2,0
1,9895	24,5	-0,3
1,99	22,8	-3,0
1,9905	20,1	-5,8
1,991	16,2	-8,2
1,9915	11,3	-9,7
1,992	6,2	-10,0
1,9925	1,8	-9,8
1,993	-1,4	-9,9
1,9935	-3,2	-10,8
1,994	-4,2	-12,2
1,9945	-4,7	-13,6
1,995	-4,7	-14,3
1,9955	-4,3	-14,0
1,996	-3,7	-12,3
1,9965	-2,8	-9,1
1,997	-2,1	-4,9
1,9975	-1,5	-0,9
1,998	-1,3	2,1
1,9985	-1,0	3,9
1,999	-0,6	4,5
1,9995	0,2	4,0
2	1,3	2,3
2,0005	2,7	0,2
2,001	3,9	-1,6
2,0015	4,7	-2,7
2,002	5,0	-3,1
2,0025	4,7	-3,3
2,003	3,6	-3,7
2,0035	2,2	-4,3
2,004	1,1	-5,2
2,0045	1,0	-6,5
2,005	1,6	-8,2
2,0055	2,2	-10,3
2,006	2,4	-12,5
2,0065	2,3	-14,5
2,007	2,4	-16,0
2,0075	2,7	-16,3
2,008	2,8	-15,6
2,0085	2,5	-14,3
2,009	2,2	-13,1
2,0095	2,4	-12,3
2,01	3,4	-12,1
2,0105	4,8	-12,5
2,011	6,1	-13,2
2,0115	7,3	-13,7
2,012	8,1	-13,7
2,0125	8,2	-12,9
2,013	7,3	-11,3
2,0135	6,0	-9,3
2,014	4,8	-7,3
2,0145	4,5	-5,6
2,015	5,1	-4,1
2,0155	6,4	-2,9
2,016	7,9	-2,5
2,0165	9,6	-3,3
2,017	11,4	-5,1
2,0175	13,1	-6,9
2,018	14,1	-7,7
2,0185	14,2	-7,3
2,019	13,6	-5,9
2,0195	12,9	-4,3
2,02	12,3	-2,9
2,0205	11,7	-2,3
2,021	11,3	-2,8
2,0215	11,3	-4,3
2,022	11,9	-6,5
2,0225	12,6	-9,1
2,023	13,0	-11,9
2,0235	12,8	-14,7
2,024	11,6	-17,0
2,0245	9,7	-18,2
2,025	7,4	-17,9
2,0255	5,3	-16,4
2,026	3,8	-14,5
2,0265	3,1	-13,1
2,027	2,8	-12,7
2,0275	2,7	-13,1
2,028	2,5	-14,0
2,0285	2,2	-14,8
2,029	1,8	-14,9
2,0295	1,3	-13,4
2,03	1,2	-10,0
2,0305	2,1	-5,5
2,031	3,8	-1,1
2,0315	5,7	2,7
2,032	7,2	5,3
2,0325	7,6	6,3
2,033	7,2	5,4
2,0335	6,2	2,7
2,034	5,0	-1,0
2,0345	4,0	-4,2
2,035	3,5	-6,0
2,0355	3,3	-6,8
2,036	3,0	-7,1
2,0365	2,5	-7,3
2,037	2,1	-7,4
2,0375	2,4	-7,5
2,038	3,8	-7,8
2,0385	6,2	-8,1
2,039	8,5	-8,6
2,0395	9,9	-9,7
2,04	10,4	-11,3
2,0405	10,5	-12,7
2,041	10,6	-13,3
2,0415	10,7	-12,7
2,042	10,3	-11,1
2,0425	9,6	-9,5
2,043	8,6	-8,9
2,0435	7,7	-9,4
2,044	7,3	-10,4
2,0445	7,5	-11,0
2,045	8,2	-11,0
2,0455	8,9	-10,3
2,046	9,0	-8,9
2,0465	7,8	-7,2
2,047	6,0	-5,5
2,0475	4,1	-4,1
2,048	2,8	-3,3
2,0485	2,0	-2,8
2,049	1,8	-2,7
2,0495	2,5	-2,9
2,05	4,0	-3,6
2,0505	6,1	-4,9
2,051	7,7	-6,5
2,0515	8,2	-8,3
2,052	7,4	-10,1
2,0525	5,8	-11,2
2,053	4,0	-11,2
2,0535	2,8	-9,8
2,054	2,5	-7,6
2,0545	3,3	-5,7
2,055	5,3	-4,7
2,0555	8,0	-4,6
2,056	10,8	-4,9
2,0565	13,2	-5,4
2,057	14,9	-5,8
2,0575	15,8	-6,0
2,058	15,8	-5,7
2,0585	14,5	-5,2
2,059	12,4	-5,0
2,0595	10,3	-5,5
2,06	8,8	-6,8
2,0605	8,1	-8,3
2,061	8,2	-10,0
2,0615	8,8	-11,9
2,062	9,5	-13,7
2,0625	9,5	-14,8
2,063	8,4	-14,3
2,0635	6,3	-12,5
2,064	4,1	-9,6
2,0645	2,0	-6,5
2,065	-0,1	-3,9
2,0655	-2,3	-2,5
2,066	-4,6	-2,9
2,0665	-6,1	-4,9
2,067	-6,1	-7,5
2,0675	-4,7	-9,7
2,068	-2,9	-10,8
2,0685	-1,5	-10,9
2,069	-0,8	-10,5
2,0695	-0,5	-9,9
2,07	-0,2	-9,3
2,0705	0,1	-8,8
2,071	0,8	-9,1
2,0715	1,8	-10,4
2,072	2,9	-12,7
2,0725	3,6	-15,2
2,073	3,4	-17,0
2,0735	2,7	-18,0
2,074	1,6	-18,3
2,0745	0,5	-17,5
2,075	-1,0	-15,6
2,0755	-2,9	-13,0
2,076	-4,6	-10,7
2,0765	-5,4	-9,4
2,077	-5,4	-9,3
2,0775	-4,9	-9,6
2,078	-3,9	-9,8
2,0785	-2,6	-9,5
2,079	-1,4	-8,5
2,0795	-0,8	-6,7
2,08	-0,7	-4,3
2,0805	-0,6	-2,0
2,081	-0,2	0,1
2,0815	0,6	1,5
2,082	1,6	2,1
2,0825	2,5	1,5
2,083	3,4	-0,4
2,0835	4,1	-3,4
2,084	4,4	-6,8
2,0845	4,0	-9,8
2,085	3,1	-11,7
2,0855	1,8	-12,3
2,086	0,6	-12,0
2,0865	-0,6	-11,1
2,087	-1,2	-9,6
2,0875	-0,8	-8,0
2,088	0,6	-6,8
2,0885	2,3	-6,8
2,089	3,2	-8,1
2,0895	2,8	-10,3
2,09	1,5	-12,5
2,0905	-0,3	-14,1
2,091	-2,0	-14,4
2,0915	-3,5	-13,1
2,092	-4,7	-10,6
2,0925	-5,4	-7,3
2,093	-5,2	-4,3
2,0935	-4,2	-2,0
2,094	-2,6	-0,6
2,0945	-0,5	0,0
2,095	1,8	0,2
2,0955	4,1	0,6
2,096	5,5	1,7
2,0965	5,5	3,7
2,097	4,4	6,0
2,0975	2,8	8,1
2,098	1,5	9,5
2,0985	0,9	10,3
2,099	1,2	10,1
2,0995	2,2	8,8
2,1	3,6	6,1
2,1005	5,3	2,5
2,101	6,8	-1,3
2,1015	7,9	-4,7
2,102	8,5	-7,6
2,1025	8,7	-10,1
2,103	8,7	-11,8
2,1035	8,6	-12,4
2,104	8,9	-11,9
2,1045	10,0	-11,2
2,105	11,8	-10,9
2,1055	13,9	-11,4
2,106	15,4	-12,2
2,1065	16,0	-13,1
2,107	15,4	-14,3
2,1075	13,5	-15,6
2,108	10,1	-16,5
2,1085	5,5	-16,8
2,109	0,4	-16,4
2,1095	-4,0	-15,9
2,11	-7,1	-15,4
2,1105	-9,0	-14,7
2,111	-9,8	-13,7
2,1115	-9,9	-12,5
2,112	-9,6	-11,2
2,1125	-9,4	-10,1
2,113	-9,9	-9,3
2,1135	-10,7	-8,7
2,114	-11,2	-7,8
2,1145	-10,8	-6,5
2,115	-9,4	-5,1
2,1155	-7,3	-3,7
2,116	-4,8	-2,8
2,1165	-1,9	-3,0
2,117	1,0	-4,3
2,1175	3,9	-6,3
2,118	6,3	-7,9
2,1185	8,2	-8,7
2,119	9,5	-8,6
2,1195	10,0	-8,2
2,12	9,4	-7,7
2,1205	7,9	-7,6
2,121	6,5	-8,1
2,1215	5,6	-9,8
2,122	5,0	-12,7
2,1225	4,0	-16,4
2,123	2,4	-20,2
2,1235	0,7	-23,2
2,124	-1,0	-24,8
2,1245	-2,5	-24,8
2,125	-4,3	-23,5
2,1255	-6,1	-21,1
2,126	-7,7	-18,5
2,1265	-8,6	-16,5
2,127	-8,8	-15,6
2,1275	-8,5	-15,6
2,128	-7,8	-15,8
2,1285	-6,9	-15,3
2,129	-5,9	-14,2
2,1295	-5,2	-12,2
2,13	-4,8	-9,8
2,1305	-4,6	-7,3
2,131	-4,3	-4,9
2,1315	-3,7	-2,7
2,132	-3,0	-0,9
2,1325	-2,1	0,1
2,133	-1,0	0,0
2,1335	0,5	-1,3
2,134	2,1	-3,7
2,1345	3,4	-6,3
2,135	4,1	-8,0
2,1355	4,1	-8,7
2,136	3,7	-8,7
2,1365	2,8	-8,3
2,137	1,9	-7,9
2,1375	1,4	-8,2
2,138	1,9	-9,5
2,1385	3,2	-11,8
2,139	4,7	-14,5
2,1395	5,8	-16,9
2,14	6,6	-18,8
2,1405	6,9	-19,9
2,141	7,0	-19,8
2,1415	6,7	-18,1
2,142	6,0	-15,0
2,1425	5,1	-11,4
2,143	4,3	-8,3
2,1435	3,9	-6,6
2,144	4,3	-6,0
2,1445	5,3	-6,2
2,145	6,3	-6,9
2,1455	6,8	-7,9
2,146	6,2	-8,9
2,1465	4,6	-9,4
2,147	2,2	-9,2
2,1475	-0,5	-8,5
2,148	-2,9	-7,8
2,1485	-4,8	-6,9
2,149	-6,0	-6,3
2,1495	-6,6	-6,3
2,15	-6,4	-7,3
2,1505	-5,6	-9,0
2,151	-4,7	-11,0
2,1515	-3,8	-12,4
2,152	-3,0	-12,7
2,1525	-2,1	-11,6
2,153	-1,2	-9,7
2,1535	-0,2	-7,8
2,154	1,2	-7,0
2,1545	3,1	-7,7
2,155	5,0	-10,2
2,1555	6,1	-14,1
2,156	5,8	-18,7
2,1565	4,4	-23,1
2,157	2,7	-26,3
2,1575	1,3	-27,5
2,158	0,5	-26,4
2,1585	0,3	-23,2
2,159	0,7	-18,5
2,1595	1,6	-13,6
2,16	2,6	-9,5
2,1605	3,4	-6,7
2,161	4,0	-4,9
2,1615	4,6	-3,8
2,162	5,3	-2,9
2,1625	5,7	-1,7
2,163	5,2	0,0
2,1635	3,8	2,3
2,164	2,2	4,6
2,1645	1,2	6,5
2,165	1,3	7,6
2,1655	2,1	7,5
2,166	2,6	5,4
2,1665	2,4	1,2
2,167	1,6	-4,3
2,1675	0,8	-9,5
2,168	0,0	-13,6
2,1685	-1,0	-16,3
2,169	-2,3	-17,7
2,1695	-3,4	-18,2
2,17	-4,2	-18,0
2,1705	-4,4	-17,7
2,171	-3,8	-18,0
2,1715	-2,5	-19,1
2,172	-0,4	-20,2
2,1725	2,1	-20,8
2,173	5,0	-20,1
2,1735	8,3	-18,3
2,174	11,1	-15,7
2,1745	12,8	-12,4
2,175	13,1	-8,7
2,1755	12,0	-4,7
2,176	10,3	-0,9
2,1765	8,7	1,8
2,177	7,7	3,3
2,1775	7,2	3,5
2,178	6,8	2,8
2,1785	6,4	1,6
2,179	5,7	0,3
2,1795	4,3	-0,5
2,18	2,1	-0,2
2,1805	-0,3	1,2
2,181	-2,1	3,1
2,1815	-3,0	5,1
2,182	-3,1	6,9
2,1825	-2,5	8,0
2,183	-1,5	7,6
2,1835	-0,2	5,6
2,184	0,8	2,0
2,1845	1,4	-2,2
2,185	1,1	-5,8
2,1855	0,0	-8,1
2,186	-1,6	-9,0
2,1865	-3,0	-8,9
2,187	-3,7	-8,2
2,1875	-3,4	-7,4
2,188	-2,0	-7,3
2,1885	0,1	-8,2
2,189	2,3	-9,9
2,1895	4,4	-12,0
2,19	6,2	-13,8
2,1905	8,1	-15,3
2,191	9,7	-16,4
2,1915	10,7	-17,3
2,192	10,6	-17,6
2,1925	9,4	-17,4
2,193	7,9	-16,6
2,1935	7,2	-15,0
2,194	7,7	-12,8
2,1945	9,3	-10,5
2,195	11,0	-9,2
2,1955	12,0	-8,9
2,196	11,8	-9,5
2,1965	9,9	-10,0
2,197	6,3	-10,1
2,1975	1,7	-9,6
2,198	-2,9	-8,8
2,1985	-6,8	-7,6
2,199	-9,3	-6,1
2,1995	-10,2	-4,8
2,2	-10,0	-4,2
2,2005	-9,0	-4,5
2,201	-8,2	-5,7
2,2015	-7,9	-7,0
2,202	-8,4	-8,0
2,2025	-9,2	-8,4
2,203	-10,1	-8,6
2,2035	-10,8	-9,1
2,204	-11,5	-10,2
2,2045	-11,9	-12,3
2,205	-11,7	-14,9
2,2055	-10,8	-17,5
2,206	-9,3	-19,2
2,2065	-7,1	-19,9
2,207	-4,7	-19,6
2,2075	-2,3	-18,0
2,208	-0,5	-15,0
2,2085	0,3	-11,1
2,209	0,2	-6,9
2,2095	-0,3	-3,5
2,21	-0,6	-1,4
2,2105	-0,4	-0,6
2,211	0,5	-0,6
2,2115	2,3	-1,2
2,212	4,5	-1,9
2,2125	6,4	-2,3
2,213	7,4	-1,9
2,2135	7,1	-0,8
2,214	5,8	0,5
2,2145	4,1	1,6
2,215	2,6	2,5
2,2155	1,4	3,3
2,216	0,6	4,0
2,2165	0,3	4,1
2,217	0,8	3,2
2,2175	1,5	1,4
2,218	1,8	-0,6
2,2185	1,2	-2,3
2,219	-0,2	-3,2
2,2195	-1,5	-3,3
2,22	-2,6	-3,2
2,2205	-3,3	-3,2
2,221	-3,6	-3,9
2,2215	-3,3	-5,9
2,222	-2,7	-8,8
2,2225	-1,8	-11,8
2,223	-1,1	-14,3
2,2235	-0,5	-16,1
2,224	-0,3	-17,4
2,2245	-0,5	-18,1
2,225	-1,4	-18,0
2,2255	-2,8	-16,6
2,226	-4,1	-14,2
2,2265	-5,0	-11,8
2,227	-5,4	-10,1
2,2275	-5,5	-9,4
2,228	-5,3	-9,5
2,2285	-4,9	-9,9
2,229	-4,8	-9,9
2,2295	-5,1	-8,9
2,23	-5,9	-6,9
2,2305	-6,7	-4,3
2,231	-6,9	-1,6
2,2315	-6,3	0,8
2,232	-5,3	2,7
2,2325	-4,0	4,0
2,233	-2,6	4,5
2,2335	-1,1	3,9
2,234	0,2	2,4
2,2345	0,9	0,7
2,235	1,1	-0,5
2,2355	1,1	-0,7
2,236	1,3	-0,1
2,2365	1,8	0,6
2,237	2,7	1,1
2,2375	3,6	1,0
2,238	4,3	-0,2
2,2385	4,6	-2,8
2,239	4,1	-6,7
2,2395	2,9	-11,1
2,24	1,1	-15,1
2,2405	-1,3	-18,3
2,241	-3,7	-20,1
2,2415	-5,8	-19,9
2,242	-7,4	-18,0
2,2425	-8,2	-14,9
2,243	-8,0	-11,6
2,2435	-6,8	-8,9
2,244	-5,5	-7,3
2,2445	-4,5	-6,9
2,245	-3,7	-7,3
2,2455	-2,8	-7,7
2,246	-1,7	-7,1
2,2465	-0,7	-5,0
2,247	-0,2	-1,8
2,2475	-0,1	1,8
2,248	-0,3	5,0
2,2485	-1,1	7,1
2,249	-2,3	7,6
2,2495	-3,4	6,4
2,25	-3,8	3,7
2,2505	-3,1	0,2
2,251	-2,2	-3,3
2,2515	-2,0	-6,3
2,252	-2,7	-8,4
2,2525	-3,6	-9,4
2,253	-4,0	-9,2
2,2535	-3,4	-7,9
2,254	-1,7	-5,6
2,2545	1,2	-2,9
2,255	4,8	-0,7
2,2555	8,1	0,7
2,256	10,4	1,3
2,2565	11,8	1,3
2,257	12,4	1,3
2,2575	12,7	1,6
2,258	12,6	2,4
2,2585	12,0	4,1
2,259	10,9	6,3
2,2595	9,7	7,9
2,26	8,6	8,1
2,2605	7,2	5,9
2,261	4,8	1,4
2,2615	1,5	-4,3
2,262	-1,7	-9,7
2,2625	-4,0	-13,2
2,263	-5,3	-14,0
2,2635	-6,2	-12,6
2,264	-7,5	-10,3
2,2645	-9,3	-8,3
2,265	-11,3	-7,1
2,2655	-13,0	-6,7
2,266	-14,1	-7,1
2,2665	-14,1	-8,4
2,267	-13,0	-10,2
2,2675	-10,9	-11,8
2,268	-8,1	-11,8
2,2685	-5,0	-10,0
2,269	-1,8	-6,8
2,2695	1,1	-3,5
2,27	3,2	-0,9
2,2705	4,3	0,3
2,271	4,8	0,0
2,2715	5,1	-1,4
2,272	5,6	-3,8
2,2725	6,1	-6,3
2,273	6,2	-8,9
2,2735	5,9	-11,3
2,274	5,5	-13,5
2,2745	4,8	-14,9
2,275	3,8	-14,7
2,2755	2,3	-12,9
2,276	0,6	-10,0
2,2765	-0,7	-6,5
2,277	-1,1	-2,8
2,2775	-0,8	0,8
2,278	0,1	3,8
2,2785	1,7	6,1
2,279	3,6	7,8
2,2795	5,3	9,5
2,28	6,8	11,4
2,2805	8,0	13,3
2,281	9,3	14,8
2,2815	10,7	15,2
2,282	12,2	14,6
2,2825	13,5	12,8
2,283	14,0	9,4
2,2835	13,4	4,1
2,284	11,3	-2,6
2,2845	7,9	-9,0
2,285	4,2	-13,2
2,2855	1,0	-14,3
2,286	-1,3	-13,3
2,2865	-2,4	-11,2
2,287	-3,0	-9,0
2,2875	-3,2	-7,3
2,288	-3,5	-6,8
2,2885	-4,1	-7,9
2,289	-5,1	-10,3
2,2895	-6,5	-12,8
2,29	-8,2	-14,9
2,2905	-10,0	-15,9
2,291	-11,8	-15,9
2,2915	-14,1	-15,1
2,292	-17,1	-13,8
2,2925	-20,4	-12,3
2,293	-22,9	-11,0
2,2935	-23,6	-10,3
2,294	-22,5	-10,2
2,2945	-19,9	-10,6
2,295	-16,6	-11,1
2,2955	-13,3	-11,3
2,296	-10,1	-10,9
2,2965	-7,5	-9,3
2,297	-5,4	-6,9
2,2975	-3,8	-4,1
2,298	-2,4	-1,5
2,2985	-0,9	0,8
2,299	0,8	2,7
2,2995	2,6	3,8
2,3	4,7	3,7
2,3005	7,0	2,2
2,301	9,3	-0,6
2,3015	11,0	-3,9
2,302	11,8	-6,8
2,3025	11,7	-8,7
2,303	11,1	-9,3
2,3035	10,3	-9,0
2,304	9,8	-8,0
2,3045	9,7	-7,4
2,305	9,7	-8,0
2,3055	9,7	-9,8
2,306	9,6	-12,1
2,3065	9,5	-14,1
2,307	9,6	-15,5
2,3075	9,9	-16,2
2,308	10,0	-15,6
2,3085	9,7	-13,5
2,309	8,7	-10,2
2,3095	6,9	-7,0
2,31	4,8	-5,5
2,3105	2,8	-6,0
2,311	1,3	-7,6
2,3115	0,2	-9,3
2,312	-0,2	-10,3
2,3125	-0,5	-10,6
2,313	-1,1	-9,8
2,3135	-2,3	-8,1
2,314	-3,7	-5,5
2,3145	-4,7	-2,8
2,315	-5,0	-0,3
2,3155	-4,8	1,6
2,316	-4,0	2,6
2,3165	-2,9	2,4
2,317	-1,5	1,2
2,3175	0,4	-0,5
2,318	2,4	-2,0
2,3185	4,1	-2,7
2,319	4,8	-2,4
2,3195	4,6	-1,5
2,32	3,9	-0,5
2,3205	3,5	0,2
2,321	4,3	0,2
2,3215	6,4	-0,6
2,322	9,8	-1,8
2,3225	13,5	-3,2
2,323	16,8	-4,5
2,3235	19,1	-5,5
2,324	20,3	-6,5
2,3245	20,5	-7,0
2,325	20,0	-6,6
2,3255	18,8	-5,2
2,326	17,6	-3,0
2,3265	17,0	-1,3
2,327	17,3	-0,4
2,3275	18,3	-0,6
2,328	19,2	-1,6
2,3285	19,6	-3,4
2,329	19,4	-5,4
2,3295	18,3	-7,0
2,33	16,6	-7,5
2,3305	14,2	-7,1
2,331	11,5	-6,1
2,3315	9,4	-4,7
2,332	8,0	-2,9
2,3325	7,4	-0,9
2,333	7,3	0,4
2,3335	7,2	0,0
2,334	7,2	-1,9
2,3345	7,6	-4,4
2,335	8,4	-6,2
2,3355	9,7	-6,4
2,336	11,1	-5,5
2,3365	12,2	-4,0
2,337	13,0	-2,8
2,3375	13,4	-2,6
2,338	13,9	-3,5
2,3385	14,8	-5,5
2,339	15,8	-8,3
2,3395	17,1	-10,8
2,34	18,9	-11,9
2,3405	21,8	-10,8
2,341	25,0	-7,8
2,3415	27,2	-4,3
2,342	26,9	-1,2
2,3425	24,8	1,3
2,343	22,1	3,2
2,3435	19,9	4,5
2,344	18,6	5,0
2,3445	17,6	4,7
2,345	16,9	3,8
2,3455	16,1	2,4
2,346	15,2	1,3
2,3465	13,4	0,6
2,347	10,4	0,5
2,3475	6,5	0,5
2,348	2,4	0,4
2,3485	-1,3	0,2
2,349	-4,3	-0,0
2,3495	-6,2	-0,3
2,35	-6,6	-1,0
2,3505	-5,7	-2,3
2,351	-4,1	-4,1
2,3515	-2,6	-5,7
2,352	-1,5	-6,6
2,3525	-1,2	-6,6
2,353	-1,3	-6,3
2,3535	-1,7	-5,9
2,354	-2,2	-6,0
2,3545	-2,4	-7,0
2,355	-2,0	-9,2
2,3555	-1,2	-12,0
2,356	-0,5	-14,9
2,3565	-0,2	-17,2
2,357	-0,3	-18,8
2,3575	-0,8	-19,7
2,358	-1,8	-19,7
2,3585	-3,7	-18,8
2,359	-5,9	-17,3
2,3595	-7,9	-15,6
2,36	-8,9	-14,0
2,3605	-8,2	-12,3
2,361	-5,5	-9,6
2,3615	-1,1	-5,7
2,362	4,3	-0,7
2,3625	9,7	4,5
2,363	14,0	9,4
2,3635	16,5	13,5
2,364	17,4	16,5
2,3645	17,4	18,1
2,365	17,2	18,3
2,3655	17,2	17,3
2,366	17,3	15,6
2,3665	17,4	12,7
2,367	17,4	8,1
2,3675	17,3	1,7
2,368	16,3	-5,6
2,3685	14,1	-12,3
2,369	10,7	-17,2
2,3695	7,1	-19,2
2,37	4,6	-18,3
2,3705	3,9	-15,6
2,371	4,5	-12,9
2,3715	5,2	-12,2
2,372	5,2	-14,1
2,3725	4,0	-18,0
2,373	1,7	-22,3
2,3735	-1,2	-25,9
2,374	-3,6	-28,2
2,3745	-5,1	-28,6
2,375	-5,9	-27,0
2,3755	-6,2	-23,6
2,376	-6,2	-19,3
2,3765	-6,0	-15,6
2,377	-5,6	-13,2
2,3775	-5,4	-12,3
2,378	-5,4	-12,6
2,3785	-5,3	-13,1
2,379	-4,7	-13,2
2,3795	-3,3	-12,3
2,38	-1,3	-10,1
2,3805	1,1	-6,3
2,381	3,7	-1,7
2,3815	6,1	2,7
2,382	7,7	6,2
2,3825	8,4	8,4
2,383	8,5	9,3
2,3835	8,6	8,8
2,384	9,2	7,1
2,3845	10,2	4,7
2,385	11,1	2,3
2,3855	11,5	0,3
2,386	11,0	-1,3
2,3865	9,5	-3,3
2,387	7,0	-6,0
2,3875	3,8	-9,2
2,388	0,6	-12,9
2,3885	-1,7	-17,0
2,389	-2,8	-20,9
2,3895	-3,4	-24,0
2,39	-4,1	-25,9
2,3905	-5,3	-26,8
2,391	-7,2	-26,8
2,3915	-9,5	-25,7
2,392	-11,9	-23,6
2,3925	-14,0	-20,6
2,393	-15,2	-17,4
2,3935	-15,1	-14,9
2,394	-13,7	-13,3
2,3945	-11,0	-12,3
2,395	-7,6	-11,2
2,3955	-3,5	-9,4
2,396	0,9	-6,7
2,3965	4,7	-3,0
2,397	7,1	0,9
2,3975	7,7	4,0
2,398	7,0	5,9
2,3985	5,5	6,3
2,399	3,8	5,8
2,3995	2,5	4,7
2,4	2,0	3,2
2,4005	2,5	1,2
2,401	3,7	-1,5
2,4015	4,8	-4,1
2,402	5,5	-5,9
2,4025	5,5	-6,7
2,403	4,8	-6,8
2,4035	3,5	-6,5
2,404	2,0	-6,3
2,4045	0,7	-6,8
2,405	-0,0	-8,6
2,4055	-0,2	-11,7
2,406	-0,2	-15,4
2,4065	-0,1	-18,8
2,407	0,1	-21,3
2,4075	0,6	-22,2
2,408	1,7	-21,1
2,4085	3,4	-18,0
2,409	5,3	-13,3
2,4095	7,2	-8,0
2,41	8,8	-3,6
2,4105	10,0	-0,9
2,411	10,8	0,3
2,4115	11,3	0,4
2,412	11,7	0,2
2,4125	11,9	0,1
2,413	12,1	0,9
2,4135	11,9	2,6
2,414	11,4	5,3
2,4145	10,9	8,1
2,415	10,9	10,7
2,4155	11,6	12,7
2,416	12,8	13,7
2,4165	14,0	13,1
2,417	14,5	10,4
2,4175	14,4	6,6
2,418	13,6	2,8
2,4185	12,2	0,5
2,419	10,3	-0,3
2,4195	8,2	0,2
2,42	6,0	1,3
2,4205	4,1	2,3
2,421	2,9	2,5
2,4215	2,9	1,6
2,422	4,1	-0,4
2,4225	5,9	-2,7
2,423	7,6	-4,6
2,4235	8,5	-5,8
2,424	8,3	-6,7
2,4245	7,1	-7,4
2,425	4,8	-7,7
2,4255	1,8	-7,5
2,426	-1,5	-6,6
2,4265	-4,3	-5,3
2,427	-5,8	-4,2
2,4275	-6,0	-3,7
2,428	-5,1	-3,7
2,4285	-3,3	-4,0
2,429	-1,3	-4,3
2,4295	0,5	-4,1
2,43	1,5	-3,0
2,4305	1,6	-0,9
2,431	1,0	1,8
2,4315	0,4	4,8
2,432	-0,2	7,7
2,4325	-0,6	9,9
2,433	-0,6	10,8
2,4335	0,3	10,3
2,434	2,1	8,7
2,4345	4,3	6,9
2,435	6,6	5,8
2,4355	8,7	5,8
2,436	10,6	6,6
2,4365	11,8	7,0
2,437	11,8	6,5
2,4375	10,6	5,0
2,438	9,3	3,1
2,4385	8,9	1,7
2,439	9,9	1,1
2,4395	12,2	1,5
2,44	14,7	2,4
2,4405	16,7	3,0
2,441	17,3	2,6
2,4415	16,4	1,5
2,442	14,6	0,5
2,4425	12,6	0,8
2,443	11,2	2,4
2,4435	10,7	3,9
2,444	10,5	3,8
2,4445	9,7	1,4
2,445	7,9	-2,6
2,4455	5,7	-6,5
2,446	3,8	-8,3
2,4465	2,6	-6,7
2,447	2,1	-2,1
2,4475	1,8	4,1
2,448	1,6	9,9
2,4485	1,1	14,1
2,449	0,4	16,3
2,4495	-0,0	16,6
2,45	0,1	15,2
2,4505	0,8	12,2
2,451	1,4	8,0
2,4515	1,4	3,3
2,452	0,4	-0,8
2,4525	-1,3	-3,9
2,453	-3,4	-6,3
2,4535	-5,2	-7,9
2,454	-6,1	-8,8
2,4545	-5,8	-8,9
2,455	-4,3	-8,9
2,4555	-1,8	-9,0
2,456	1,2	-8,8
2,4565	4,2	-8,0
2,457	7,0	-6,5
2,4575	9,4	-4,5
2,458	11,1	-2,3
2,4585	11,5	-0,1
2,459	10,3	2,4
2,4595	7,9	5,2
2,46	4,9	7,3
2,4605	2,2	8,7
2,461	0,3	9,1
2,4615	-1,0	9,0
2,462	-2,3	8,0
2,4625	-4,0	6,1
2,463	-6,6	3,9
2,4635	-9,8	2,7
2,464	-12,9	2,9
2,4645	-15,3	4,2
2,465	-16,9	5,8
2,4655	-17,7	6,9
2,466	-17,8	7,3
2,4665	-17,3	6,4
2,467	-16,3	4,3
2,4675	-14,9	1,3
2,468	-13,3	-1,6
2,4685	-11,6	-3,4
2,469	-10,1	-4,1
2,4695	-8,8	-3,8
2,47	-8,0	-2,8
2,4705	-7,5	-1,5
2,471	-7,2	-0,1
2,4715	-6,7	0,7
2,472	-5,5	0,7
2,4725	-3,6	0,1
2,473	-1,3	-0,7
2,4735	0,7	-1,3
2,474	1,9	-2,0
2,4745	2,2	-2,5
2,475	1,8	-2,5
2,4755	0,6	-1,7
2,476	-0,8	0,0
2,4765	-2,0	2,0
2,477	-2,7	3,8
2,4775	-2,7	5,0
2,478	-2,3	5,5
2,4785	-1,4	5,4
2,479	-0,6	4,9
2,4795	0,0	4,6
2,48	0,1	5,0
2,4805	-0,3	6,7
2,481	-0,8	9,2
2,4815	-1,3	11,9
2,482	-1,7	14,0
2,4825	-1,8	15,0
2,483	-1,6	14,9
2,4835	-0,7	14,0
2,484	1,0	12,3
2,4845	2,9	9,9
2,485	4,3	7,3
2,4855	4,5	4,8
2,486	3,6	3,0
2,4865	1,9	2,2
2,487	-0,1	2,5
2,4875	-2,1	3,5
2,488	-3,5	4,7
2,4885	-4,0	5,2
2,489	-3,8	4,7
2,4895	-3,7	3,5
2,49	-4,1	1,8
2,4905	-5,1	-0,1
2,491	-6,4	-1,9
2,4915	-7,8	-3,2
2,492	-9,2	-3,2
2,4925	-10,7	-1,6
2,493	-12,1	0,8
2,4935	-13,3	3,1
2,494	-13,8	4,7
2,4945	-13,7	5,6
2,495	-13,1	5,8
2,4955	-12,4	5,5
2,496	-12,0	4,9
2,4965	-12,3	4,5
2,497	-13,0	4,8
2,4975	-13,4	5,6
2,498	-13,2	6,3
2,4985	-11,9	6,4
2,499	-9,5	6,5
2,4995	-6,1	7,0
2,5	-2,2	7,8
2,5005	1,4	8,4
2,501	4,1	8,0
2,5015	5,3	6,9
2,502	5,2	5,9
2,5025	4,3	5,7
2,503	3,6	6,7
2,5035	3,4	8,9
2,504	3,8	12,0
2,5045	4,8	15,1
2,505	6,1	17,0
2,5055	7,8	17,2
2,506	9,6	16,1
2,5065	10,8	14,1
2,507	11,3	11,8
2,5075	11,1	9,3
2,508	10,1	7,2
2,5085	8,2	5,7
2,509	5,5	4,6
2,5095	1,9	3,3
2,51	-2,0	0,7
2,5105	-5,8	-3,6
2,511	-8,8	-8,3
2,5115	-10,0	-11,7
2,512	-9,3	-12,4
2,5125	-7,1	-10,9
2,513	-4,7	-7,8
2,5135	-3,1	-3,9
2,514	-2,6	0,4
2,5145	-3,0	4,5
2,515	-3,8	7,8
2,5155	-4,3	10,0
2,516	-4,4	11,2
2,5165	-4,2	11,3
2,517	-3,9	10,4
2,5175	-3,4	8,3
2,518	-3,0	5,6
2,5185	-2,8	3,3
2,519	-2,7	2,0
2,5195	-2,8	2,0
2,52	-2,8	2,9
2,5205	-2,8	4,4
2,521	-2,7	6,2
2,5215	-2,1	7,8
2,522	-0,9	8,8
2,5225	0,7	9,3
2,523	2,4	9,3
2,5235	3,9	8,9
2,524	4,7	7,9
2,5245	4,4	6,3
2,525	3,2	5,1
2,5255	1,2	4,9
2,526	-0,9	5,8
2,5265	-3,0	6,9
2,527	-4,8	6,9
2,5275	-6,2	5,4
2,528	-6,9	3,2
2,5285	-6,8	1,1
2,529	-6,0	-0,3
2,5295	-4,8	-0,4
2,53	-3,9	0,8
2,5305	-4,0	3,1
2,531	-5,2	5,5
2,5315	-6,7	7,3
2,532	-7,7	8,8
2,5325	-7,5	10,5
2,533	-6,0	12,4
2,5335	-3,6	13,8
2,534	-0,7	14,1
2,5345	2,1	12,9
2,535	4,3	11,1
2,5355	5,7	9,5
2,536	6,0	8,5
2,5365	5,4	7,9
2,537	4,1	7,4
2,5375	2,6	7,1
2,538	1,6	6,5
2,5385	1,4	5,1
2,539	1,8	2,9
2,5395	2,0	0,4
2,54	1,6	-2,2
2,5405	0,7	-4,4
2,541	-0,1	-6,0
2,5415	-0,7	-6,4
2,542	-1,4	-5,3
2,5425	-2,3	-2,9
2,543	-3,2	0,3
2,5435	-3,7	3,3
2,544	-3,6	5,4
2,5445	-3,0	6,7
2,545	-2,3	7,4
2,5455	-1,6	7,6
2,546	-1,1	7,7
2,5465	-0,8	7,9
2,547	-0,9	8,7
2,5475	-1,0	10,2
2,548	-0,9	12,0
2,5485	-0,2	13,8
2,549	0,9	15,1
2,5495	2,2	16,2
2,55	3,6	16,6
2,5505	5,0	16,2
2,551	6,4	15,0
2,5515	7,8	13,4
2,552	8,8	12,3
2,5525	9,3	11,6
2,553	8,5	10,8
2,5535	6,4	9,3
2,554	3,3	7,1
2,5545	-0,3	4,4
2,555	-3,1	1,9
2,5555	-4,3	-0,1
2,556	-3,6	-1,4
2,5565	-1,3	-2,1
2,557	1,7	-2,2
2,5575	4,5	-2,0
2,558	6,3	-1,3
2,5585	6,9	0,0
2,559	6,3	2,3
2,5595	4,7	5,0
2,56	3,0	7,7
2,5605	2,2	9,8
2,561	2,8	11,1
2,5615	4,8	11,9
2,562	7,7	12,3
2,5625	10,6	12,8
2,563	12,8	13,8
2,5635	13,8	15,1
2,564	13,2	16,6
2,5645	11,5	17,7
2,565	9,3	17,9
2,5655	7,2	17,3
2,566	5,3	15,8
2,5665	3,8	13,5
2,567	3,1	10,3
2,5675	3,4	6,9
2,568	4,6	4,0
2,5685	5,7	2,5
2,569	5,8	2,5
2,5695	4,8	3,6
2,57	2,9	5,1
2,5705	0,5	6,6
2,571	-2,3	7,6
2,5715	-5,0	7,6
2,572	-7,3	6,1
2,5725	-8,7	3,4
2,573	-9,5	0,0
2,5735	-9,8	-3,3
2,574	-9,9	-5,8
2,5745	-9,7	-7,1
2,575	-9,0	-6,7
2,5755	-8,0	-4,2
2,576	-6,8	0,3
2,5765	-5,4	5,6
2,577	-3,6	10,2
2,5775	-1,6	13,1
2,578	0,4	14,2
2,5785	2,5	14,6
2,579	4,7	15,1
2,5795	6,8	16,0
2,58	8,1	17,6
2,5805	8,3	19,3
2,581	7,3	20,1
2,5815	5,4	19,4
2,582	2,9	16,8
2,5825	0,1	12,8
2,583	-2,4	8,3
2,5835	-3,5	4,5
2,584	-2,5	2,3
2,5845	0,4	2,1
2,585	4,2	3,5
2,5855	7,0	5,8
2,586	7,7	7,8
2,5865	6,2	8,7
2,587	3,2	8,6
2,5875	-0,0	7,8
2,588	-2,5	6,8
2,5885	-3,2	5,6
2,589	-2,1	4,3
2,5895	0,3	3,0
2,59	2,9	1,7
2,5905	4,9	0,6
2,591	6,1	-0,1
2,5915	6,5	0,0
2,592	6,1	1,3
2,5925	4,9	3,8
2,593	3,8	7,3
2,5935	3,4	10,7
2,594	3,7	13,2
2,5945	3,9	14,2
2,595	3,2	13,3
2,5955	1,6	11,1
2,596	-0,6	8,5
2,5965	-2,9	6,7
2,597	-5,1	6,1
2,5975	-6,9	6,7
2,598	-8,3	8,1
2,5985	-9,3	9,6
2,599	-10,3	10,9
2,5995	-11,3	11,4
2,6	-11,9	10,9
2,6005	-11,7	9,4
2,601	-10,4	7,1
2,6015	-8,6	4,5
2,602	-6,9	2,4
2,6025	-5,8	1,3
2,603	-5,4	0,9
2,6035	-5,4	0,9
2,604	-5,6	0,7
2,6045	-5,8	0,3
2,605	-5,8	-0,7
2,6055	-5,1	-2,4
2,606	-4,2	-4,6
2,6065	-3,3	-6,8
2,607	-2,7	-8,6
2,6075	-2,3	-9,8
2,608	-2,2	-10,4
2,6085	-2,4	-9,8
2,609	-3,1	-7,8
2,6095	-3,8	-4,6
2,61	-4,3	-1,0
2,6105	-4,3	2,3
2,611	-3,6	5,1
2,6115	-1,9	7,5
2,612	0,6	9,6
2,6125	3,7	11,5
2,613	7,1	13,6
2,6135	10,2	16,2
2,614	12,5	19,1
2,6145	13,8	21,7
2,615	14,1	23,4
2,6155	13,9	24,0
2,616	13,6	23,7
2,6165	13,7	22,4
2,617	14,3	20,2
2,6175	15,3	16,9
2,618	15,8	12,6
2,6185	14,8	7,7
2,619	12,0	3,3
2,6195	8,6	0,6
2,62	5,3	-0,1
2,6205	2,4	0,7
2,621	0,0	2,4
2,6215	-1,8	4,1
2,622	-2,7	4,6
2,6225	-2,9	3,5
2,623	-3,3	1,0
2,6235	-4,7	-2,2
2,624	-7,0	-5,4
2,6245	-10,3	-8,5
2,625	-13,8	-10,8
2,6255	-17,1	-12,1
2,626	-19,5	-12,3
2,6265	-20,6	-11,8
2,627	-20,4	-11,6
2,6275	-19,2	-11,8
2,628	-17,5	-12,1
2,6285	-15,8	-12,1
2,629	-14,2	-11,6
2,6295	-12,9	-10,6
2,63	-12,1	-9,1
2,6305	-11,3	-6,6
2,631	-10,1	-2,8
2,6315	-7,8	2,0
2,632	-4,9	6,8
2,6325	-2,3	10,8
2,633	-0,6	13,2
2,6335	0,4	13,9
2,634	1,3	12,9
2,6345	2,8	10,7
2,635	5,1	8,5
2,6355	7,7	7,2
2,636	9,6	6,8
2,6365	10,2	6,6
2,637	9,3	6,0
2,6375	7,2	5,3
2,638	5,2	4,4
2,6385	4,0	3,3
2,639	4,0	1,4
2,6395	4,8	-0,9
2,64	6,1	-2,7
2,6405	7,6	-3,5
2,641	9,0	-3,3
2,6415	9,6	-2,6
2,642	9,1	-1,5
2,6425	7,3	-0,3
2,643	5,1	0,9
2,6435	3,1	1,4
2,644	1,8	1,2
2,6445	1,2	0,4
2,645	1,1	-0,1
2,6455	1,5	-0,1
2,646	1,9	0,4
2,6465	2,1	1,2
2,647	1,4	2,1
2,6475	-0,1	2,7
2,648	-2,3	3,1
2,6485	-4,3	3,3
2,649	-5,4	3,8
2,6495	-5,3	4,8
2,65	-3,8	6,1
2,6505	-1,9	7,1
2,651	0,3	7,4
2,6515	2,1	7,1
2,652	3,2	6,8
2,6525	3,3	6,7
2,653	2,4	6,7
2,6535	0,7	6,5
2,654	-1,6	6,0
2,6545	-4,2	4,9
2,655	-6,3	2,9
2,6555	-6,8	-0,2
2,656	-5,9	-3,8
2,6565	-4,3	-7,3
2,657	-3,0	-10,8
2,6575	-2,9	-14,5
2,658	-4,1	-18,4
2,6585	-6,6	-21,9
2,659	-10,0	-23,7
2,6595	-13,1	-22,8
2,66	-14,5	-19,7
2,6605	-13,9	-15,5
2,661	-11,6	-11,4
2,6615	-8,4	-8,1
2,662	-5,2	-6,0
2,6625	-2,4	-4,8
2,663	-0,4	-4,1
2,6635	0,5	-3,2
2,664	0,0	-2,0
2,6645	-1,3	-0,5
2,665	-2,8	0,9
2,6655	-4,0	1,9
2,666	-4,6	2,7
2,6665	-4,5	3,0
2,667	-3,5	2,7
2,6675	-1,7	1,6
2,668	0,4	-0,3
2,6685	2,1	-2,0
2,669	3,1	-3,3
2,6695	3,1	-3,9
2,67	2,6	-4,1
2,6705	1,8	-3,7
2,671	1,5	-2,9
2,6715	2,1	-2,3
2,672	3,7	-2,4
2,6725	6,0	-3,6
2,673	8,3	-5,4
2,6735	10,2	-7,2
2,674	11,5	-8,3
2,6745	12,3	-8,6
2,675	12,7	-7,9
2,6755	12,5	-6,2
2,676	11,6	-3,5
2,6765	10,1	-0,6
2,677	8,5	1,8
2,6775	7,3	2,9
2,678	6,8	3,0
2,6785	7,1	2,3
2,679	7,7	1,3
2,6795	8,1	0,2
2,68	7,2	-0,8
2,6805	4,5	-1,3
2,681	0,6	-1,5
2,6815	-3,3	-1,2
2,682	-6,2	-0,3
2,6825	-7,6	1,2
2,683	-7,4	2,8
2,6835	-6,0	3,8
2,684	-3,5	4,1
2,6845	-0,5	3,6
2,685	2,4	2,8
2,6855	4,8	2,3
2,686	6,6	2,7
2,6865	8,1	3,9
2,687	9,4	5,8
2,6875	10,5	7,7
2,688	11,6	8,6
2,6885	12,7	7,7
2,689	13,5	5,2
2,6895	14,2	1,8
2,69	14,6	-1,4
2,6905	14,6	-4,0
2,691	13,8	-6,2
2,6915	12,2	-8,1
2,692	9,7	-9,3
2,6925	6,9	-8,8
2,693	4,2	-6,9
2,6935	1,8	-4,4
2,694	-0,1	-2,8
2,6945	-2,0	-2,3
2,695	-3,9	-2,8
2,6955	-5,6	-3,4
2,696	-6,9	-3,7
2,6965	-7,9	-3,2
2,697	-8,8	-1,4
2,6975	-9,6	1,9
2,698	-10,1	6,1
2,6985	-10,0	10,2
2,699	-9,2	13,5
2,6995	-7,9	15,6
2,7	-6,3	16,4
2,7005	-4,5	15,5
2,701	-2,6	12,8
2,7015	-1,1	8,5
2,702	-0,1	4,2
2,7025	0,4	0,8
2,703	0,9	-1,5
2,7035	1,5	-3,2
2,704	1,8	-4,7
2,7045	1,6	-6,1
2,705	1,3	-7,2
2,7055	1,1	-8,2
2,706	1,1	-9,1
2,7065	0,9	-9,9
2,707	0,5	-10,8
2,7075	-0,2	-11,6
2,708	-1,1	-12,0
2,7085	-2,3	-11,8
2,709	-3,7	-10,4
2,7095	-5,0	-8,0
2,71	-5,6	-4,9
2,7105	-5,4	-2,2
2,711	-4,7	-0,2
2,7115	-4,2	0,9
2,712	-4,1	1,4
2,7125	-4,1	1,6
2,713	-4,0	1,6
2,7135	-4,2	2,1
2,714	-4,6	3,2
2,7145	-5,1	4,7
2,715	-5,3	6,2
2,7155	-5,2	7,2
2,716	-4,7	7,8
2,7165	-3,8	8,0
2,717	-2,4	7,6
2,7175	-0,3	6,7
2,718	2,4	5,5
2,7185	5,0	4,8
2,719	6,8	4,5
2,7195	7,1	4,5
2,72	6,3	4,7
2,7205	5,0	5,3
2,721	3,8	6,1
2,7215	3,2	6,6
2,722	3,0	5,8
2,7225	2,8	3,5
2,723	2,2	0,1
2,7235	1,1	-3,6
2,724	-0,3	-6,8
2,7245	-1,8	-9,1
2,725	-3,3	-10,1
2,7255	-4,8	-9,5
2,726	-6,3	-7,3
2,7265	-7,2	-3,9
2,727	-7,5	-0,4
2,7275	-7,7	2,3
2,728	-8,1	3,8
2,7285	-8,6	4,3
2,729	-9,2	4,0
2,7295	-9,5	3,5
2,73	-9,8	3,3
2,7305	-10,4	4,1
2,731	-11,4	5,8
2,7315	-12,3	8,2
2,732	-12,8	10,7
2,7325	-12,9	12,8
2,733	-12,8	14,3
2,7335	-12,7	14,6
2,734	-12,7	13,3
2,7345	-12,8	10,4
2,735	-12,9	6,8
2,7355	-13,1	3,8
2,736	-13,6	2,1
2,7365	-14,3	1,6
2,737	-14,9	1,8
2,7375	-15,3	2,3
2,738	-15,4	2,9
2,7385	-15,0	3,0
2,739	-14,2	2,1
2,7395	-12,9	0,3
2,74	-11,2	-1,5
2,7405	-8,9	-2,5
2,741	-5,8	-2,1
2,7415	-2,2	-0,2
2,742	1,3	2,5
2,7425	3,3	5,3
2,743	3,1	6,9
2,7435	0,8	6,9
2,744	-2,7	5,1
2,7445	-6,2	2,5
2,745	-8,9	0,0
2,7455	-10,7	-2,0
2,746	-11,7	-3,3
2,7465	-12,3	-3,7
2,747	-13,0	-3,1
2,7475	-13,7	-1,5
2,748	-14,3	0,8
2,7485	-14,5	3,4
2,749	-14,2	6,0
2,7495	-13,4	8,4
2,75	-12,0	10,7
2,7505	-10,1	12,5
2,751	-7,6	13,8
2,7515	-4,4	14,8
2,752	-0,9	16,1
2,7525	2,6	18,2
2,753	5,5	20,8
2,7535	7,4	23,0
2,754	8,0	24,3
2,7545	7,3	24,0
2,755	5,6	22,0
2,7555	3,8	17,8
2,756	2,4	12,0
2,7565	1,8	5,4
2,757	1,9	-0,6
2,7575	2,8	-4,9
2,758	4,5	-6,6
2,7585	6,6	-5,3
2,759	8,5	-1,3
2,7595	9,4	3,9
2,76	8,8	8,7
2,7605	6,9	11,6
2,761	4,3	12,5
2,7615	1,9	11,9
2,762	0,3	10,5
2,7625	-0,3	8,9
2,763	-0,6	7,7
2,7635	-1,0	7,6
2,764	-1,8	8,7
2,7645	-2,8	10,8
2,765	-3,8	13,1
2,7655	-4,9	14,8
2,766	-6,4	15,4
2,7665	-8,3	14,6
2,767	-10,2	12,7
2,7675	-11,9	9,7
2,768	-13,4	5,9
2,7685	-14,6	2,1
2,769	-15,3	-0,8
2,7695	-15,0	-2,0
2,77	-13,8	-1,7
2,7705	-11,5	-0,1
2,771	-8,8	2,5
2,7715	-6,1	5,0
2,772	-3,8	6,2
2,7725	-2,1	5,6
2,773	-1,0	3,7
2,7735	-0,3	1,6
2,774	0,1	0,1
2,7745	0,1	-0,7
2,775	-0,5	-0,6
2,7755	-1,8	0,1
2,776	-3,8	1,6
2,7765	-5,6	3,9
2,777	-6,6	6,7
2,7775	-6,3	9,4
2,778	-5,1	11,5
2,7785	-3,9	12,7
2,779	-3,2	13,0
2,7795	-3,4	12,3
2,78	-4,5	11,4
2,7805	-6,2	11,0
2,781	-7,9	11,3
2,7815	-8,8	12,4
2,782	-8,4	14,1
2,7825	-7,2	16,1
2,783	-5,5	18,0
2,7835	-3,9	19,0
2,784	-2,4	18,6
2,7845	-0,9	16,7
2,785	0,5	13,9
2,7855	1,6	11,5
2,786	2,2	9,9
2,7865	2,3	9,4
2,787	2,0	9,6
2,7875	1,4	10,0
2,788	0,7	10,2
2,7885	0,1	9,7
2,789	-0,2	8,3
2,7895	-0,1	6,5
2,79	0,1	4,7
2,7905	-0,3	3,2
2,791	-1,5	2,1
2,7915	-3,3	1,3
2,792	-5,4	1,1
2,7925	-7,6	1,8
2,793	-9,7	3,9
2,7935	-11,1	6,8
2,794	-11,5	9,4
2,7945	-10,7	11,0
2,795	-9,5	11,2
2,7955	-8,7	10,4
2,796	-8,3	9,3
2,7965	-8,2	8,7
2,797	-8,4	9,2
2,7975	-8,7	11,3
2,798	-9,1	14,6
2,7985	-8,9	18,3
2,799	-7,9	21,6
2,7995	-6,2	23,9
2,8	-3,7	25,4
2,8005	-0,8	25,8
2,801	2,3	25,1
2,8015	5,0	23,3
2,802	7,1	21,0
2,8025	8,5	19,0
2,803	8,6	17,1
2,8035	6,9	14,6
2,804	3,4	11,1
2,8045	-1,2	6,9
2,805	-5,3	2,9
2,8055	-8,0	-0,7
2,806	-8,9	-3,4
2,8065	-8,3	-4,9
2,807	-6,8	-4,9
2,8075	-5,0	-3,8
2,808	-3,5	-2,1
2,8085	-2,9	-0,3
2,809	-3,7	1,7
2,8095	-5,7	3,7
2,81	-8,5	5,5
2,8105	-11,2	6,7
2,811	-12,8	7,0
2,8115	-12,9	6,6
2,812	-11,5	6,0
2,8125	-9,4	5,5
2,813	-7,3	5,3
2,8135	-5,5	5,8
2,814	-4,9	7,2
2,8145	-5,6	9,1
2,815	-7,5	10,9
2,8155	-9,9	12,5
2,816	-12,1	13,8
2,8165	-13,3	14,7
2,817	-13,1	15,0
2,8175	-11,3	14,3
2,818	-8,7	12,6
2,8185	-6,4	10,4
2,819	-5,3	8,3
2,8195	-5,5	6,9
2,82	-7,0	6,2
2,8205	-9,1	6,1
2,821	-11,5	6,2
2,8215	-13,4	6,3
2,822	-14,2	5,8
2,8225	-13,5	4,6
2,823	-11,6	3,3
2,8235	-9,1	2,5
2,824	-6,5	2,5
2,8245	-4,6	2,9
2,825	-3,8	3,3
2,8255	-4,2	4,0
2,826	-5,4	5,5
2,8265	-6,8	7,8
2,827	-7,7	9,8
2,8275	-7,8	10,3
2,828	-7,7	9,0
2,8285	-7,7	6,1
2,829	-8,4	2,6
2,8295	-9,6	-0,8
2,83	-10,8	-2,7
2,8305	-11,8	-2,5
2,831	-12,5	-0,3
2,8315	-12,9	2,9
2,832	-12,9	6,4
2,8325	-12,6	9,5
2,833	-12,3	11,7
2,8335	-11,9	12,7
2,834	-11,4	12,1
2,8345	-10,6	10,5
2,835	-9,1	8,6
2,8355	-6,9	7,5
2,836	-4,3	7,8
2,8365	-2,2	9,3
2,837	-1,2	11,3
2,8375	-1,3	13,2
2,838	-1,9	14,8
2,8385	-2,3	16,0
2,839	-2,1	16,3
2,8395	-1,2	15,5
2,84	0,2	14,0
2,8405	1,7	12,4
2,841	3,2	11,1
2,8415	4,5	10,3
2,842	5,2	10,0
2,8425	5,0	10,3
2,843	4,0	11,1
2,8435	2,9	11,8
2,844	2,5	11,5
2,8445	2,9	10,0
2,845	3,7	7,9
2,8455	4,8	6,4
2,846	6,2	6,1
2,8465	7,5	7,0
2,847	8,3	9,0
2,8475	8,5	11,5
2,848	7,9	14,4
2,8485	6,4	16,7
2,849	3,7	17,6
2,8495	-0,2	17,0
2,85	-4,5	15,3
2,8505	-8,5	13,1
2,851	-11,7	10,7
2,8515	-13,8	7,9
2,852	-15,1	5,5
2,8525	-15,6	3,9
2,853	-15,7	3,5
2,8535	-15,9	3,7
2,854	-16,8	3,6
2,8545	-18,6	2,9
2,855	-20,3	1,8
2,8555	-20,9	0,3
2,856	-19,7	-1,2
2,8565	-17,2	-2,4
2,857	-14,2	-3,0
2,8575	-11,3	-2,8
2,858	-9,1	-2,3
2,8585	-7,8	-1,7
2,859	-7,8	-0,8
2,8595	-8,8	0,8
2,86	-10,0	2,9
2,8605	-10,8	5,0
2,861	-10,9	6,4
2,8615	-10,7	7,0
2,862	-10,2	6,9
2,8625	-9,2	6,4
2,863	-8,0	5,8
2,8635	-7,0	5,7
2,864	-6,9	6,7
2,8645	-7,5	8,7
2,865	-8,6	11,3
2,8655	-9,4	13,7
2,866	-9,6	15,5
2,8665	-9,3	16,5
2,867	-8,2	16,7
2,8675	-6,4	15,8
2,868	-4,2	13,8
2,8685	-1,8	11,1
2,869	-0,0	8,4
2,8695	1,0	6,4
2,87	1,5	5,4
2,8705	1,3	5,2
2,871	0,7	5,6
2,8715	-0,5	6,1
2,872	-1,6	6,1
2,8725	-2,2	5,3
2,873	-1,8	4,0
2,8735	-0,4	2,8
2,874	1,6	2,2
2,8745	3,5	1,8
2,875	4,9	2,0
2,8755	5,5	2,9
2,876	5,8	5,4
2,8765	6,0	9,1
2,877	6,7	13,2
2,8775	7,9	16,1
2,878	9,0	16,9
2,8785	9,2	15,5
2,879	8,1	12,4
2,8795	5,7	8,7
2,88	2,8	6,0
2,8805	-0,5	5,2
2,881	-3,7	6,1
2,8815	-6,4	7,7
2,882	-8,6	9,4
2,8825	-10,4	10,9
2,883	-11,9	12,2
2,8835	-13,3	12,9
2,884	-14,2	12,5
2,8845	-14,4	10,7
2,885	-14,0	7,7
2,8855	-13,4	4,6
2,886	-12,9	2,2
2,8865	-12,8	0,7
2,887	-13,2	0,1
2,8875	-13,9	-0,0
2,888	-14,8	-0,0
2,8885	-15,7	-0,6
2,889	-15,9	-2,2
2,8895	-15,5	-4,7
2,89	-14,5	-7,3
2,8905	-13,2	-9,3
2,891	-11,9	-10,4
2,8915	-10,8	-10,7
2,892	-10,0	-10,1
2,8925	-9,6	-8,5
2,893	-9,4	-5,7
2,8935	-9,2	-2,0
2,894	-8,7	1,6
2,8945	-8,3	4,2
2,895	-8,2	5,4
2,8955	-8,4	5,5
2,896	-8,2	5,4
2,8965	-7,3	5,9
2,897	-5,9	7,7
2,8975	-4,2	10,8
2,898	-2,7	14,6
2,8985	-1,6	17,9
2,899	-1,1	19,8
2,8995	-1,3	19,7
2,9	-1,8	17,9
2,9005	-1,9	15,2
2,901	-1,2	12,1
2,9015	-0,1	8,4
2,902	0,7	4,3
2,9025	0,7	0,7
2,903	-0,2	-1,8
2,9035	-1,6	-2,9
2,904	-3,3	-3,0
2,9045	-5,0	-2,5
2,905	-6,5	-2,1
2,9055	-7,4	-2,6
2,906	-7,7	-4,2
2,9065	-7,5	-6,2
2,907	-7,3	-7,8
2,9075	-7,4	-8,6
2,908	-7,4	-8,8
2,9085	-7,3	-8,2
2,909	-7,0	-6,5
2,9095	-6,6	-3,6
2,91	-6,3	0,0
2,9105	-6,0	3,5
2,911	-6,1	5,8
2,9115	-6,4	6,4
2,912	-7,0	5,7
2,9125	-7,3	4,0
2,913	-7,3	2,0
2,9135	-7,3	0,3
2,914	-7,8	-0,3
2,9145	-8,6	0,5
2,915	-9,0	2,4
2,9155	-8,6	5,0
2,916	-7,0	7,8
2,9165	-4,6	10,7
2,917	-1,8	13,0
2,9175	0,6	13,7
2,918	2,5	12,3
2,9185	3,3	9,5
2,919	2,8	6,8
2,9195	1,2	5,0
2,92	-1,4	4,2
2,9205	-4,8	4,0
2,921	-8,6	4,0
2,9215	-12,0	3,7
2,922	-14,6	2,8
2,9225	-15,8	1,2
2,923	-15,5	-0,2
2,9235	-14,3	-0,8
2,924	-12,8	-0,4
2,9245	-11,6	0,3
2,925	-10,8	0,9
2,9255	-10,3	1,5
2,926	-10,1	2,5
2,9265	-10,2	3,9
2,927	-10,7	5,2
2,9275	-11,3	5,8
2,928	-11,9	5,5
2,9285	-12,1	4,6
2,929	-11,9	3,3
2,9295	-10,9	1,7
2,93	-9,6	-0,1
2,9305	-9,0	-1,6
2,931	-9,4	-2,2
2,9315	-10,5	-1,4
2,932	-11,4	0,8
2,9325	-11,7	4,0
2,933	-11,2	7,3
2,9335	-10,4	9,8
2,934	-9,1	10,7
2,9345	-7,4	9,6
2,935	-5,6	6,9
2,9355	-4,2	3,8
2,936	-3,4	1,4
2,9365	-3,3	-0,2
2,937	-3,8	-1,1
2,9375	-4,5	-1,7
2,938	-5,3	-2,3
2,9385	-5,8	-3,0
2,939	-5,8	-4,1
2,9395	-5,2	-5,5
2,94	-4,2	-7,1
2,9405	-3,1	-8,3
2,941	-2,1	-8,7
2,9415	-1,1	-7,8
2,942	0,2	-5,7
2,9425	1,6	-2,4
2,943	2,5	1,5
2,9435	2,5	5,1
2,944	1,6	7,5
2,9445	0,3	8,4
2,945	-1,2	8,3
2,9455	-2,4	7,8
2,946	-3,2	7,4
2,9465	-3,4	7,2
2,947	-3,5	7,3
2,9475	-4,1	7,8
2,948	-5,6	8,6
2,9485	-7,8	9,3
2,949	-10,3	9,5
2,9495	-12,4	9,6
2,95	-13,4	9,8
2,9505	-13,5	9,7
2,951	-12,7	8,5
2,9515	-11,3	6,3
2,952	-9,7	3,8
2,9525	-8,3	1,9
2,953	-7,4	0,8
2,9535	-7,1	0,4
2,954	-7,0	0,3
2,9545	-7,0	0,3
2,955	-6,6	0,3
2,9555	-5,6	-0,1
2,956	-4,0	-1,3
2,9565	-2,3	-2,8
2,957	-0,6	-3,8
2,9575	1,2	-3,7
2,958	3,3	-2,0
2,9585	5,6	0,8
2,959	7,6	3,9
2,9595	8,3	6,8
2,96	7,1	9,1
2,9605	4,4	10,5
2,961	0,9	10,9
2,9615	-2,6	10,5
2,962	-5,9	9,5
2,9625	-9,0	7,7
2,963	-12,0	5,2
2,9635	-14,8	2,6
2,964	-17,6	0,5
2,9645	-19,9	-0,5
2,965	-21,2	-0,3
2,9655	-21,1	0,8
2,966	-19,8	2,4
2,9665	-18,1	4,1
2,967	-16,2	5,3
2,9675	-14,3	5,6
2,968	-12,8	4,7
2,9685	-12,1	3,0
2,969	-12,5	1,3
2,9695	-13,9	0,2
2,97	-15,6	0,1
2,9705	-16,7	1,0
2,971	-16,8	2,7
2,9715	-16,0	4,5
2,972	-14,6	5,5
2,9725	-13,0	4,9
2,973	-11,4	2,3
2,9735	-10,1	-1,4
2,974	-9,4	-5,3
2,9745	-9,1	-8,2
2,975	-9,1	-9,7
2,9755	-9,4	-9,7
2,976	-10,6	-8,5
2,9765	-12,8	-6,5
2,977	-15,2	-4,6
2,9775	-16,7	-3,0
2,978	-16,3	-1,7
2,9785	-13,2	-0,1
2,979	-8,0	2,2
2,9795	-1,5	5,4
2,98	4,8	9,1
2,9805	9,6	12,8
2,981	12,4	16,3
2,9815	13,3	19,7
2,982	13,0	22,5
2,9825	12,1	24,8
2,983	11,0	26,2
2,9835	9,9	26,5
2,984	9,3	25,5
2,9845	9,1	22,8
2,985	9,3	18,7
2,9855	9,8	14,1
2,986	10,0	10,3
2,9865	9,6	7,6
2,987	8,0	5,9
2,9875	4,9	4,4
2,988	0,3	2,5
2,9885	-4,9	-0,1
2,989	-9,7	-3,3
2,9895	-13,3	-6,8
2,99	-15,6	-10,0
2,9905	-16,6	-12,1
2,991	-17,0	-12,8
2,9915	-16,9	-12,1
2,992	-17,1	-10,3
2,9925	-18,1	-7,9
2,993	-20,3	-5,3
2,9935	-23,3	-3,2
2,994	-26,2	-2,1
2,9945	-27,9	-2,0
2,995	-28,4	-2,4
2,9955	-27,8	-2,9
2,996	-26,4	-3,3
2,9965	-24,3	-3,0
2,997	-22,0	-1,5
2,9975	-20,2	1,3
2,998	-19,1	5,2
2,9985	-18,3	9,4
2,999	-17,6	13,1
2,9995	-16,8	15,5
3	-15,7	16,5
3,0005	-14,3	16,2
3,001	-12,3	14,8
3,0015	-9,9	12,3
3,002	-7,8	9,5
3,0025	-6,2	7,1
3,003	-5,2	5,6
3,0035	-4,8	5,3
3,004	-4,8	6,3
3,0045	-4,8	8,7
3,005	-4,3	11,8
3,0055	-2,7	14,6
3,006	0,1	16,2
3,0065	3,1	16,3
3,007	5,3	15,2
3,0075	6,0	13,3
3,008	5,2	10,8
3,0085	3,3	8,3
3,009	0,7	6,3
3,0095	-2,6	5,2
3,01	-6,2	4,4
3,0105	-10,0	3,0
3,011	-13,3	0,7
3,0115	-15,8	-1,8
3,012	-17,2	-3,2
3,0125	-17,6	-3,1
3,013	-17,3	-1,8
3,0135	-16,6	0,2
3,014	-16,0	2,8
3,0145	-15,8	5,9
3,015	-15,8	9,3
3,0155	-15,9	12,6
3,016	-15,8	15,3
3,0165	-15,5	16,8
3,017	-15,0	16,5
3,0175	-14,4	14,5
3,018	-13,5	11,2
3,0185	-12,5	7,3
3,019	-11,6	4,0
3,0195	-10,9	2,3
3,02	-10,3	2,2
3,0205	-10,0	3,1
3,021	-10,5	4,3
3,0215	-11,7	5,0
3,022	-13,0	5,0
3,0225	-13,4	4,1
3,023	-12,8	2,4
3,0235	-11,3	0,7
3,024	-9,5	-0,6
3,0245	-7,9	-1,4
3,025	-6,7	-1,6
3,0255	-6,2	-1,0
3,026	-6,6	0,6
3,0265	-7,8	2,8
3,027	-9,0	5,1
3,0275	-9,9	6,6
3,028	-10,0	7,3
3,0285	-9,5	7,5
3,029	-8,6	7,5
3,0295	-7,5	7,5
3,03	-6,4	7,5
3,0305	-5,8	7,8
3,031	-6,3	8,6
3,0315	-7,9	9,9
3,032	-10,3	11,6
3,0325	-12,7	13,0
3,033	-14,7	14,1
3,0335	-16,1	14,4
3,034	-16,7	13,8
3,0345	-16,3	12,3
3,035	-15,3	10,1
3,0355	-14,3	7,7
3,036	-14,2	5,6
3,0365	-15,1	4,3
3,037	-16,5	4,3
3,0375	-17,7	5,6
3,038	-18,4	7,7
3,0385	-18,8	9,6
3,039	-18,6	10,2
3,0395	-18,2	9,2
3,04	-17,5	7,0
3,0405	-16,8	4,4
3,041	-15,8	2,0
3,0415	-14,5	0,2
3,042	-13,2	-0,8
3,0425	-12,5	-0,7
3,043	-13,1	0,4
3,0435	-14,8	2,1
3,044	-16,6	3,4
3,0445	-17,4	3,8
3,045	-16,6	3,2
3,0455	-14,3	2,3
3,046	-11,1	1,6
3,0465	-7,8	1,6
3,047	-5,5	2,6
3,0475	-4,5	4,8
3,048	-4,7	7,9
3,0485	-5,4	11,4
3,049	-5,9	14,6
3,0495	-5,8	17,3
3,05	-4,9	19,0
3,0505	-3,4	19,9
3,051	-1,7	19,6
3,0515	-0,1	18,1
3,052	0,3	15,3
3,0525	-1,0	11,8
3,053	-4,0	8,4
3,0535	-7,8	5,9
3,054	-11,3	4,5
3,0545	-14,0	4,0
3,055	-16,1	3,6
3,0555	-17,6	2,5
3,056	-18,2	0,6
3,0565	-17,6	-1,2
3,057	-15,8	-2,2
3,0575	-13,0	-2,3
3,058	-10,1	-1,9
3,0585	-7,9	-1,3
3,059	-6,9	-0,5
3,0595	-7,3	0,8
3,06	-8,4	2,8
3,0605	-9,4	4,8
3,061	-9,5	6,3
3,0615	-8,7	7,2
3,062	-7,3	7,4
3,0625	-6,0	7,5
3,063	-4,6	7,7
3,0635	-3,2	8,3
3,064	-1,8	9,7
3,0645	-0,8	12,1
3,065	-0,3	15,0
3,0655	-0,4	17,7
3,066	-1,2	19,4
3,0665	-2,5	19,9
3,067	-4,2	19,2
3,0675	-5,8	17,6
3,068	-6,9	15,3
3,0685	-7,5	12,6
3,069	-7,7	10,1
3,0695	-8,0	8,4
3,07	-8,5	7,8
3,0705	-9,0	7,9
3,071	-9,4	8,6
3,0715	-9,4	9,3
3,072	-9,3	9,4
3,0725	-9,1	8,3
3,073	-8,8	5,9
3,0735	-8,5	3,1
3,074	-8,3	0,6
3,0745	-8,3	-0,7
3,075	-8,0	-0,1
3,0755	-7,6	2,3
3,076	-7,5	6,2
3,0765	-7,9	11,2
3,077	-8,7	16,3
3,0775	-9,2	20,5
3,078	-9,4	22,8
3,0785	-9,7	23,2
3,079	-10,4	22,2
3,0795	-11,3	20,3
3,08	-12,0	17,9
3,0805	-12,4	15,1
3,081	-13,4	11,5
3,0815	-15,8	6,9
3,082	-19,3	2,0
3,0825	-23,0	-2,1
3,083	-26,1	-4,5
3,0835	-28,3	-5,0
3,084	-29,2	-4,3
3,0845	-28,8	-3,3
3,085	-27,0	-2,6
3,0855	-24,6	-1,9
3,086	-22,4	-1,0
3,0865	-20,9	0,4
3,087	-20,3	1,9
3,0875	-20,2	3,4
3,088	-20,2	4,7
3,0885	-19,8	5,6
3,089	-18,5	5,6
3,0895	-16,3	4,4
3,09	-13,3	2,5
3,0905	-10,3	0,5
3,091	-8,0	-1,2
3,0915	-6,8	-2,7
3,092	-6,7	-3,7
3,0925	-7,4	-3,8
3,093	-8,8	-2,7
3,0935	-10,0	-0,2
3,094	-10,8	2,9
3,0945	-10,9	5,8
3,095	-10,6	7,7
3,0955	-10,2	8,3
3,096	-9,7	8,3
3,0965	-8,9	7,8
3,097	-8,1	7,7
3,0975	-7,6	8,2
3,098	-7,6	9,5
3,0985	-8,0	11,3
3,099	-8,5	12,8
3,0995	-9,2	13,2
3,1	-10,1	12,0
3,1005	-10,9	9,3
3,101	-11,2	5,8
3,1015	-10,5	2,4
3,102	-8,7	0,1
3,1025	-6,2	-0,6
3,103	-3,7	0,1
3,1035	-1,3	1,9
3,104	0,6	4,2
3,1045	1,8	6,2
3,105	2,3	7,4
3,1055	2,1	7,1
3,106	1,6	5,4
3,1065	1,0	2,7
3,107	0,3	-0,1
3,1075	-0,6	-2,2
3,108	-2,1	-3,6
3,1085	-4,1	-4,3
3,109	-6,6	-4,3
3,1095	-9,4	-3,6
3,11	-12,3	-2,1
3,1105	-15,1	-0,2
3,111	-17,4	1,3
3,1115	-18,9	2,0
3,112	-19,6	2,0
3,1125	-19,4	1,5
3,113	-18,7	0,5
3,1135	-18,3	-0,2
3,114	-18,9	-0,2
3,1145	-20,6	1,0
3,115	-22,7	3,0
3,1155	-24,2	5,3
3,116	-24,9	7,6
3,1165	-25,0	9,6
3,117	-24,5	10,9
3,1175	-23,1	11,7
3,118	-20,4	11,8
3,1185	-16,8	11,2
3,119	-13,2	10,4
3,1195	-10,5	10,1
3,12	-8,6	10,4
3,1205	-7,2	11,3
3,121	-6,1	12,3
3,1215	-5,3	13,1
3,122	-5,2	12,9
3,1225	-5,7	11,2
3,123	-6,6	7,8
3,1235	-7,7	3,2
3,124	-9,0	-1,6
3,1245	-9,9	-5,7
3,125	-10,0	-8,4
3,1255	-9,4	-9,5
3,126	-8,5	-8,8
3,1265	-8,2	-6,5
3,127	-8,6	-3,2
3,1275	-9,1	0,2
3,128	-9,1	2,8
3,1285	-8,3	4,5
3,129	-7,2	5,3
3,1295	-6,0	5,5
3,13	-5,0	5,9
3,1305	-4,1	7,0
3,131	-3,7	9,1
3,1315	-3,8	11,7
3,132	-4,1	14,1
3,1325	-4,3	15,8
3,133	-4,2	16,8
3,1335	-3,5	17,3
3,134	-2,3	17,1
3,1345	-1,1	16,0
3,135	0,3	13,9
3,1355	1,5	11,2
3,136	2,4	8,7
3,1365	2,6	6,7
3,137	2,1	5,7
3,1375	1,5	5,7
3,138	1,3	6,9
3,1385	1,5	8,9
3,139	2,2	10,4
3,1395	3,3	10,1
3,14	4,1	7,9
3,1405	4,4	4,9
3,141	3,9	2,1
3,1415	2,9	0,1
3,142	1,4	-1,3
3,1425	-0,7	-2,1
3,143	-3,5	-1,8
3,1435	-6,6	-0,6
3,144	-8,9	1,0
3,1445	-9,4	2,4
3,145	-8,2	3,3
3,1455	-6,2	3,5
3,146	-4,8	3,0
3,1465	-4,6	2,0
3,147	-5,5	1,1
3,1475	-6,9	1,3
3,148	-7,9	3,0
3,1485	-8,2	5,9
3,149	-7,4	9,4
3,1495	-6,0	12,7
3,15	-4,5	15,7
3,1505	-3,0	18,2
3,151	-1,2	19,9
3,1515	0,8	20,4
3,152	2,7	20,0
3,1525	3,6	19,2
3,153	3,2	18,8
3,1535	1,5	18,8
3,154	-0,8	19,2
3,1545	-3,0	19,3
3,155	-4,8	18,8
3,1555	-6,2	16,5
3,156	-7,5	11,8
3,1565	-8,8	5,4
3,157	-10,2	-1,3
3,1575	-11,6	-6,6
3,158	-13,0	-9,9
3,1585	-14,4	-11,8
3,159	-16,2	-12,7
3,1595	-18,3	-12,6
3,16	-20,4	-11,0
3,1605	-21,8	-8,3
3,161	-22,4	-5,3
3,1615	-22,2	-3,2
3,162	-21,6	-2,2
3,1625	-20,5	-2,1
3,163	-18,7	-1,9
3,1635	-16,1	-1,3
3,164	-13,2	0,3
3,1645	-10,7	3,2
3,165	-8,9	7,0
3,1655	-7,9	11,3
3,166	-7,4	15,2
3,1665	-7,4	18,2
3,167	-7,4	20,0
3,1675	-7,3	20,4
3,168	-6,8	19,3
3,1685	-6,0	17,0
3,169	-4,9	14,4
3,1695	-4,0	12,4
3,17	-3,7	10,9
3,1705	-3,9	9,7
3,171	-4,8	7,9
3,1715	-6,2	5,6
3,172	-7,5	2,7
3,1725	-8,2	-0,8
3,173	-8,0	-4,4
3,1735	-7,1	-7,4
3,174	-5,9	-8,9
3,1745	-4,9	-9,0
3,175	-4,2	-8,1
3,1755	-3,8	-6,6
3,176	-3,5	-3,9
3,1765	-2,9	0,2
3,177	-2,0	5,4
3,1775	-0,8	10,6
3,178	0,6	14,8
3,1785	1,8	17,5
3,179	2,7	18,9
3,1795	3,1	19,3
3,18	3,0	19,2
3,1805	2,5	18,8
3,181	1,6	18,8
3,1815	0,2	18,8
3,182	-1,8	18,2
3,1825	-4,8	16,0
3,183	-9,1	11,6
3,1835	-14,1	5,6
3,184	-18,8	-0,3
3,1845	-22,0	-4,7
3,185	-22,6	-7,1
3,1855	-21,2	-7,9
3,186	-19,1	-7,5
3,1865	-17,4	-6,3
3,187	-16,7	-4,7
3,1875	-16,8	-3,3
3,188	-17,7	-2,3
3,1885	-19,0	-1,8
3,189	-20,2	-2,3
3,1895	-20,5	-3,7
3,19	-20,0	-5,6
3,1905	-18,7	-7,2
3,191	-17,1	-7,8
3,1915	-15,9	-7,7
3,192	-15,7	-7,2
3,1925	-16,7	-6,6
3,193	-18,5	-5,9
3,1935	-20,2	-4,3
3,194	-20,8	-1,7
3,1945	-19,7	1,9
3,195	-17,1	5,6
3,1955	-13,8	8,6
3,196	-10,6	10,6
3,1965	-8,0	11,4
3,197	-6,8	11,3
3,1975	-7,0	10,5
3,198	-8,2	10,1
3,1985	-9,7	10,3
3,199	-10,9	11,0
3,1995	-11,4	12,0
3,2	-11,3	13,0
3,2005	-10,5	13,6
3,201	-9,1	13,8
3,2015	-7,0	13,3
3,202	-4,5	12,2
3,2025	-2,1	10,8
3,203	-0,4	9,6
3,2035	0,2	8,8
3,204	-0,0	8,3
3,2045	-0,9	8,0
3,205	-1,9	7,8
3,2055	-2,4	7,4
3,206	-1,9	6,4
3,2065	-0,5	4,8
3,207	1,5	3,3
3,2075	3,6	2,1
3,208	5,0	1,1
3,2085	5,1	-0,3
3,209	3,7	-1,8
3,2095	1,0	-3,0
3,21	-2,4	-3,2
3,2105	-5,7	-2,2
3,211	-8,6	-0,9
3,2115	-10,8	-0,1
3,212	-12,4	-0,0
3,2125	-13,5	-0,6
3,213	-13,9	-1,3
3,2135	-13,7	-1,8
3,214	-13,0	-1,4
3,2145	-12,6	-0,1
3,215	-13,0	2,1
3,2155	-14,5	4,4
3,216	-16,3	6,7
3,2165	-17,5	8,7
3,217	-18,0	10,4
3,2175	-17,8	11,4
3,218	-17,3	10,8
3,2185	-16,4	8,8
3,219	-15,4	6,0
3,2195	-14,4	3,5
3,22	-13,4	2,2
3,2205	-12,5	2,0
3,221	-11,5	2,6
3,2215	-10,2	3,6
3,222	-8,7	4,5
3,2225	-6,6	4,9
3,223	-3,9	4,5
3,2235	-0,9	3,3
3,224	2,0	1,8
3,2245	4,3	0,1
3,225	5,6	-1,3
3,2255	6,1	-2,2
3,226	5,9	-2,1
3,2265	4,7	-0,8
3,227	2,9	1,6
3,2275	1,3	4,3
3,228	0,2	6,7
3,2285	0,0	8,0
3,229	0,5	8,6
3,2295	1,3	8,8
3,23	2,2	9,0
3,2305	2,1	9,4
3,231	0,5	10,4
3,2315	-2,7	11,5
3,232	-6,8	12,3
3,2325	-11,4	12,3
3,233	-16,0	10,9
3,2335	-20,2	8,5
3,234	-23,1	5,7
3,2345	-23,9	3,1
3,235	-22,5	1,4
3,2355	-20,0	0,3
3,236	-17,6	-0,3
3,2365	-16,1	-0,7
3,237	-15,3	-0,7
3,2375	-14,6	-0,2
3,238	-13,2	0,8
3,2385	-11,0	2,4
3,239	-8,0	4,0
3,2395	-4,7	4,9
3,24	-1,8	4,5
3,2405	0,3	2,8
3,241	1,5	0,7
3,2415	2,1	-1,1
3,242	2,5	-2,3
3,2425	2,6	-2,6
3,243	2,3	-1,8
3,2435	1,8	0,1
3,244	1,0	2,5
3,2445	-0,2	4,0
3,245	-1,8	3,9
3,2455	-4,1	2,3
3,246	-7,0	0,1
3,2465	-9,8	-1,7
3,247	-11,7	-2,3
3,2475	-12,8	-1,3
3,248	-13,4	1,0
3,2485	-13,8	4,1
3,249	-14,0	7,0
3,2495	-13,9	9,5
3,25	-13,6	11,3
3,2505	-13,1	12,5
3,251	-12,4	12,7
3,2515	-11,5	12,0
3,252	-10,1	10,4
3,2525	-8,4	8,7
3,253	-6,6	7,3
3,2535	-5,0	6,7
3,254	-3,9	6,7
3,2545	-3,3	7,1
3,255	-3,0	7,7
3,2555	-3,0	8,0
3,256	-2,9	7,8
3,2565	-2,7	6,7
3,257	-2,2	5,1
3,2575	-1,7	3,1
3,258	-1,2	1,2
3,2585	-0,5	-0,3
3,259	0,5	-0,7
3,2595	1,4	0,3
3,26	2,0	3,0
3,2605	2,0	6,9
3,261	1,7	11,0
3,2615	1,5	14,2
3,262	1,3	15,8
3,2625	1,0	15,9
3,263	0,7	15,0
3,2635	0,6	14,0
3,264	0,6	13,9
3,2645	0,5	15,6
3,265	0,1	18,3
3,2655	-0,5	20,8
3,266	-1,3	21,8
3,2665	-2,4	20,9
3,267	-3,9	18,5
3,2675	-5,4	15,5
3,268	-6,5	12,3
3,2685	-6,6	9,5
3,269	-6,3	6,9
3,2695	-6,2	4,8
3,27	-6,9	2,8
3,2705	-8,6	0,7
3,271	-10,4	-1,4
3,2715	-12,0	-3,0
3,272	-12,5	-3,3
3,2725	-11,3	-2,3
3,273	-8,5	-0,5
3,2735	-5,1	1,0
3,274	-2,4	1,7
3,2745	-1,5	1,2
3,275	-2,2	-0,3
3,2755	-4,0	-2,3
3,276	-6,2	-4,0
3,2765	-8,3	-4,3
3,277	-10,2	-3,2
3,2775	-11,4	-1,3
3,278	-11,7	0,6
3,2785	-11,1	1,8
3,279	-9,5	2,6
3,2795	-7,1	3,1
3,28	-3,8	4,1
3,2805	0,4	6,3
3,281	4,6	10,2
3,2815	7,8	14,9
3,282	8,9	19,1
3,2825	7,7	21,2
3,283	4,8	20,6
3,2835	1,4	17,9
3,284	-2,0	14,1
3,2845	-4,7	9,9
3,285	-6,5	5,7
3,2855	-7,2	1,7
3,286	-7,3	-1,5
3,2865	-7,3	-3,5
3,287	-7,4	-4,0
3,2875	-7,5	-3,3
3,288	-7,3	-1,8
3,2885	-6,9	0,3
3,289	-6,3	2,1
3,2895	-5,3	3,0
3,29	-3,5	2,8
3,2905	-1,2	2,0
3,291	0,9	0,8
3,2915	1,9	-0,8
3,292	1,6	-2,6
3,2925	0,1	-4,1
3,293	-2,1	-4,6
3,2935	-4,3	-3,6
3,294	-6,1	-1,6
3,2945	-7,0	0,8
3,295	-7,2	2,8
3,2955	-7,1	3,8
3,296	-6,9	4,2
3,2965	-6,7	4,3
3,297	-6,5	4,5
3,2975	-6,6	5,3
3,298	-7,1	6,8
3,2985	-8,0	9,0
3,299	-9,2	11,1
3,2995	-10,2	12,8
3,3	-10,5	13,9
3,3005	-10,2	14,8
3,301	-9,4	14,9
3,3015	-8,3	13,9
3,302	-6,9	11,5
3,3025	-5,6	8,7
3,303	-4,7	6,6
3,3035	-4,4	5,7
3,304	-4,4	5,5
3,3045	-4,7	5,4
3,305	-4,9	5,3
3,3055	-4,8	5,4
3,306	-4,1	5,1
3,3065	-3,1	3,9
3,307	-2,2	1,7
3,3075	-1,9	-1,1
3,308	-2,3	-3,6
3,3085	-3,1	-5,6
3,309	-4,1	-6,7
3,3095	-5,3	-6,6
3,31	-7,0	-5,4
3,3105	-9,0	-3,5
3,311	-10,6	-1,8
3,3115	-11,1	-0,6
3,312	-10,3	-0,1
3,3125	-8,5	-0,0
3,313	-6,3	0,1
3,3135	-3,9	0,5
3,314	-1,8	1,4
3,3145	-0,3	3,2
3,315	0,4	5,8
3,3155	0,7	8,6
3,316	1,1	11,1
3,3165	1,8	12,9
3,317	2,6	13,8
3,3175	3,3	14,0
3,318	3,9	13,2
3,3185	4,3	11,1
3,319	4,3	8,3
3,3195	3,8	5,3
3,32	2,6	2,7
3,3205	1,0	0,7
3,321	-1,0	-0,8
3,3215	-3,3	-1,2
3,322	-5,6	-0,6
3,3225	-7,3	0,7
3,323	-8,0	1,8
3,3235	-7,6	2,5
3,324	-6,5	2,8
3,3245	-5,5	2,9
3,325	-5,1	2,7
3,3255	-5,8	2,1
3,326	-7,5	1,4
3,3265	-9,8	1,1
3,327	-12,2	1,9
3,3275	-13,9	3,6
3,328	-14,4	5,5
3,3285	-13,6	6,8
3,329	-12,1	7,2
3,3295	-10,5	6,8
3,33	-9,6	5,9
3,3305	-9,5	5,0
3,331	-10,0	4,7
3,3315	-10,3	5,6
3,332	-9,6	7,8
3,3325	-7,8	10,8
3,333	-5,1	13,7
3,3335	-2,2	16,1
3,334	0,5	17,4
3,3345	2,5	17,3
3,335	3,9	15,5
3,3355	4,7	12,4
3,336	5,0	9,0
3,3365	4,7	6,0
3,337	3,7	3,8
3,3375	2,3	2,6
3,338	1,2	2,7
3,3385	0,8	4,0
3,339	1,1	5,8
3,3395	1,5	6,7
3,34	1,6	6,2
3,3405	1,1	4,7
3,341	-0,2	3,0
3,3415	-1,6	1,5
3,342	-2,8	0,5
3,3425	-3,7	-0,0
3,343	-4,4	0,0
3,3435	-5,4	0,5
3,344	-6,6	1,1
3,3445	-7,7	0,9
3,345	-8,7	-0,6
3,3455	-9,2	-2,6
3,346	-8,9	-4,1
3,3465	-7,7	-4,3
3,347	-5,7	-3,3
3,3475	-3,5	-1,0
3,348	-1,6	2,5
3,3485	-0,4	6,7
3,349	0,0	10,8
3,3495	-0,1	14,0
3,35	-0,8	16,1
3,3505	-2,0	17,1
3,351	-3,2	16,9
3,3515	-4,0	15,5
3,352	-4,3	13,1
3,3525	-4,1	10,5
3,353	-3,9	8,4
3,3535	-4,2	7,1
3,354	-4,9	6,3
3,3545	-6,0	5,8
3,355	-6,9	5,8
3,3555	-7,2	6,3
3,356	-6,4	6,6
3,3565	-4,3	6,2
3,357	-1,8	4,7
3,3575	0,1	2,2
3,358	1,0	-0,4
3,3585	1,3	-2,6
3,359	1,3	-4,1
3,3595	1,2	-4,6
3,36	1,0	-3,7
3,3605	0,7	-1,8
3,361	0,4	0,4
3,3615	0,8	2,3
3,362	2,3	4,0
3,3625	4,5	6,6
3,363	7,2	10,3
3,3635	9,4	14,2
3,364	10,3	17,6
3,3645	9,8	20,1
3,365	8,2	22,1
3,3655	6,4	23,8
3,366	4,7	24,8
3,3665	3,0	24,7
3,367	0,8	23,4
3,3675	-1,7	21,2
3,368	-4,1	18,0
3,3685	-6,1	13,3
3,369	-7,5	6,8
3,3695	-8,9	-0,7
3,37	-10,7	-7,6
3,3705	-12,4	-11,9
3,371	-13,0	-12,7
3,3715	-12,1	-10,0
3,372	-9,9	-5,3
3,3725	-7,1	-0,8
3,373	-4,8	2,0
3,3735	-3,4	2,1
3,374	-3,5	-0,1
3,3745	-4,9	-3,0
3,375	-6,7	-5,6
3,3755	-8,2	-7,1
3,376	-8,9	-6,9
3,3765	-8,9	-5,3
3,377	-8,8	-2,3
3,3775	-8,8	0,9
3,378	-9,0	3,3
3,3785	-9,3	4,4
3,379	-9,1	4,8
3,3795	-8,4	4,8
3,38	-7,2	5,0
3,3805	-5,7	5,2
3,381	-4,3	5,7
3,3815	-3,4	6,9
3,382	-3,1	8,6
3,3825	-3,1	10,3
3,383	-3,1	11,5
3,3835	-3,1	12,1
3,384	-2,9	12,3
3,3845	-2,5	12,0
3,385	-1,9	10,8
3,3855	-1,7	8,5
3,386	-2,5	5,3
3,3865	-4,6	2,1
3,387	-7,4	0,0
3,3875	-9,7	-0,5
3,388	-10,8	0,6
3,3885	-10,7	2,6
3,389	-9,6	4,7
3,3895	-8,2	5,9
3,39	-6,8	5,9
3,3905	-5,5	4,8
3,391	-4,3	3,7
3,3915	-3,3	2,9
3,392	-2,6	2,4
3,3925	-2,4	2,2
3,393	-3,2	2,3
3,3935	-4,8	3,3
3,394	-6,6	5,1
3,3945	-7,7	7,0
3,395	-7,3	8,3
3,3955	-5,5	8,8
3,396	-2,3	9,2
3,3965	1,9	10,2
3,397	6,6	11,6
3,3975	10,6	13,4
3,398	12,4	15,0
3,3985	11,7	16,3
3,399	8,8	17,1
3,3995	4,8	17,3
3,4	0,5	17,0
3,4005	-3,1	16,1
3,401	-5,2	14,8
3,4015	-5,4	12,9
3,402	-4,3	10,3
3,4025	-2,8	7,0
3,403	-2,2	3,5
3,4035	-2,9	0,2
3,404	-4,4	-2,1
3,4045	-5,7	-3,4
3,405	-6,2	-3,8
3,4055	-5,8	-4,0
3,406	-4,7	-4,6
3,4065	-3,1	-5,8
3,407	-1,4	-7,5
3,4075	0,2	-9,0
3,408	1,3	-9,7
3,4085	1,9	-9,4
3,409	2,0	-8,5
3,4095	1,8	-6,9
3,41	1,4	-4,5
3,4105	0,8	-1,6
3,411	0,3	1,1
3,4115	-0,1	2,5
3,412	-0,7	2,6
3,4125	-1,3	2,1
3,413	-1,9	1,6
3,4135	-2,5	1,2
3,414	-3,3	1,0
3,4145	-4,5	1,1
3,415	-6,2	1,7
3,4155	-7,8	2,8
3,416	-8,9	4,3
3,4165	-9,3	6,5
3,417	-9,1	9,2
3,4175	-8,4	11,8
3,418	-7,2	13,4
3,4185	-5,4	13,5
3,419	-3,3	12,1
3,4195	-1,0	10,1
3,42	0,7	8,5
3,4205	1,4	7,7
3,421	1,2	7,3
3,4215	0,2	7,2
3,422	-1,2	7,0
3,4225	-2,1	6,3
3,423	-1,9	4,6
3,4235	-0,7	1,8
3,424	0,8	-1,5
3,4245	1,9	-4,7
3,425	2,4	-7,1
3,4255	2,3	-8,3
3,426	1,8	-8,2
3,4265	0,8	-6,7
3,427	-0,7	-4,2
3,4275	-2,1	-1,2
3,428	-3,1	1,5
3,4285	-3,3	3,5
3,429	-2,9	4,7
3,4295	-1,9	5,3
3,43	-0,4	6,0
3,4305	1,3	6,8
3,431	2,5	7,9
3,4315	2,5	9,5
3,432	1,6	11,1
3,4325	0,3	12,6
3,433	-0,7	13,8
3,4335	-1,1	14,9
3,434	-1,3	15,7
3,4345	-1,2	15,4
3,435	-0,6	13,4
3,4355	1,0	9,8
3,436	2,9	5,3
3,4365	4,4	1,3
3,437	5,3	-1,4
3,4375	5,5	-2,7
3,438	5,5	-2,8
3,4385	5,3	-2,5
3,439	5,0	-2,4
3,4395	4,9	-3,2
3,44	5,1	-4,9
3,4405	5,4	-6,9
3,441	5,3	-8,6
3,4415	4,7	-9,4
3,442	3,8	-9,3
3,4425	2,8	-8,1
3,443	2,1	-5,5
3,4435	1,3	-2,0
3,444	0,0	1,9
3,4445	-1,5	5,2
3,445	-2,7	7,4
3,4455	-2,9	8,3
3,446	-2,3	8,1
3,4465	-1,3	7,3
3,447	-0,5	6,3
3,4475	0,0	5,5
3,448	-0,2	5,5
3,4485	-1,3	5,7
3,449	-3,8	4,7
3,4495	-7,4	1,8
3,45	-11,6	-2,5
3,4505	-15,5	-6,8
3,451	-18,2	-9,5
3,4515	-18,9	-10,6
3,452	-17,8	-10,7
3,4525	-15,4	-10,3
3,453	-12,8	-9,4
3,4535	-10,7	-8,0
3,454	-9,1	-6,0
3,4545	-8,2	-3,9
3,455	-7,8	-2,0
3,4555	-7,9	-0,6
3,456	-8,2	-0,1
3,4565	-8,0	-0,6
3,457	-7,3	-2,0
3,4575	-6,4	-4,0
3,458	-5,6	-6,2
3,4585	-5,2	-8,2
3,459	-5,0	-9,7
3,4595	-4,8	-10,2
3,46	-4,5	-9,4
3,4605	-4,7	-7,4
3,461	-5,3	-4,9
3,4615	-6,3	-3,0
3,462	-7,1	-2,2
3,4625	-7,1	-2,2
3,463	-6,2	-2,8
3,4635	-4,4	-3,5
3,464	-2,3	-4,0
3,4645	-0,4	-3,4
3,465	1,2	-1,3
3,4655	2,6	2,2
3,466	3,9	5,8
3,4665	5,3	9,0
3,467	6,7	11,2
3,4675	8,1	12,7
3,468	9,7	13,3
3,4685	11,6	13,3
3,469	13,4	12,3
3,4695	14,3	10,8
3,47	14,0	8,9
3,4705	12,5	6,9
3,471	10,3	5,0
3,4715	8,2	3,4
3,472	6,6	2,5
3,4725	6,3	2,3
3,473	7,7	2,2
3,4735	10,1	1,4
3,474	12,6	-0,8
3,4745	14,3	-4,2
3,475	14,4	-7,8
3,4755	12,7	-11,2
3,476	9,5	-13,5
3,4765	5,4	-14,7
3,477	1,3	-14,2
3,4775	-2,3	-12,4
3,478	-4,6	-10,1
3,4785	-5,6	-8,1
3,479	-5,3	-6,7
3,4795	-4,5	-5,5
3,48	-3,4	-4,4
3,4805	-2,7	-3,6
3,481	-3,0	-2,8
3,4815	-4,9	-1,9
3,482	-7,8	-0,6
3,4825	-10,5	1,0
3,483	-12,2	3,0
3,4835	-12,8	5,1
3,484	-12,7	6,8
3,4845	-12,0	7,2
3,485	-10,9	5,9
3,4855	-9,1	2,9
3,486	-6,8	-0,8
3,4865	-4,9	-4,1
3,487	-3,8	-6,3
3,4875	-3,4	-7,0
3,488	-3,3	-6,7
3,4885	-3,3	-5,5
3,489	-3,3	-4,3
3,4895	-3,0	-3,7
3,49	-2,3	-4,1
3,4905	-1,2	-5,4
3,491	0,0	-7,2
3,4915	0,9	-9,0
3,492	1,3	-10,5
3,4925	1,0	-11,4
3,493	-0,2	-11,4
3,4935	-2,0	-10,3
3,494	-4,3	-8,3
3,4945	-6,5	-6,2
3,495	-7,8	-5,0
3,4955	-8,3	-4,9
3,496	-7,8	-5,7
3,4965	-6,6	-6,7
3,497	-5,0	-7,4
3,4975	-3,6	-7,3
3,498	-2,6	-5,8
3,4985	-2,3	-3,1
3,499	-2,4	0,3
3,4995	-2,4	3,4
3,5	-2,3	5,7
3,5005	-2,0	6,9
3,501	-1,2	7,3
3,5015	0,4	6,9
3,502	2,7	5,5
3,5025	5,2	3,8
3,503	7,4	2,5
3,5035	9,3	2,3
3,504	10,7	3,3
3,5045	12,0	5,0
3,505	13,5	7,0
3,5055	14,6	8,7
3,506	15,1	9,3
3,5065	15,0	8,2
3,507	14,7	5,6
3,5075	14,1	2,2
3,508	13,4	-0,8
3,5085	12,5	-3,2
3,509	11,7	-4,8
3,5095	10,6	-5,9
3,51	9,0	-6,5
3,5105	6,5	-6,6
3,511	3,8	-6,3
3,5115	2,0	-5,8
3,512	1,9	-5,0
3,5125	3,6	-3,5
3,513	6,5	-1,1
3,5135	9,7	1,5
3,514	12,3	3,7
3,5145	13,5	5,6
3,515	13,1	7,4
3,5155	11,7	9,3
3,516	10,0	11,2
3,5165	8,5	12,7
3,517	7,6	13,5
3,5175	7,0	13,4
3,518	6,4	12,0
3,5185	6,0	9,4
3,519	5,6	5,9
3,5195	4,8	2,2
3,52	3,3	-0,8
3,5205	1,3	-2,9
3,521	-1,0	-4,1
3,5215	-2,8	-4,3
3,522	-3,8	-3,4
3,5225	-3,8	-1,9
3,523	-2,7	-0,5
3,5235	-0,8	-0,3
3,524	1,2	-1,4
3,5245	2,7	-3,0
3,525	3,4	-4,5
3,5255	3,5	-5,7
3,526	2,9	-6,6
3,5265	1,4	-7,2
3,527	-1,2	-7,5
3,5275	-4,8	-7,8
3,528	-8,4	-8,3
3,5285	-11,2	-9,0
3,529	-12,6	-9,0
3,5295	-12,7	-7,5
3,53	-11,8	-4,8
3,5305	-10,6	-1,9
3,531	-9,5	0,9
3,5315	-8,8	3,7
3,532	-8,8	6,3
3,5325	-8,9	8,5
3,533	-8,8	10,0
3,5335	-8,3	10,8
3,534	-7,0	10,9
3,5345	-5,3	9,9
3,535	-3,6	7,3
3,5355	-2,3	2,4
3,536	-1,9	-3,8
3,5365	-2,2	-9,2
3,537	-2,6	-11,9
3,5375	-2,9	-11,6
3,538	-2,7	-9,3
3,5385	-1,9	-6,2
3,539	-0,6	-3,5
3,5395	1,3	-1,9
3,54	3,7	-1,4
3,5405	6,3	-1,6
3,541	8,6	-2,0
3,5415	10,4	-2,4
3,542	11,3	-3,0
3,5425	11,1	-3,8
3,543	9,6	-4,2
3,5435	7,2	-3,5
3,544	4,4	-1,7
3,5445	1,9	0,7
3,545	0,1	2,6
3,5455	-1,0	3,3
3,546	-1,4	3,0
3,5465	-1,6	2,0
3,547	-1,6	0,9
3,5475	-1,7	0,2
3,548	-2,1	0,2
3,5485	-3,1	1,1
3,549	-4,6	2,8
3,5495	-5,9	4,5
3,55	-6,5	5,8
3,5505	-6,3	6,7
3,551	-5,2	7,3
3,5515	-3,5	7,4
3,552	-1,4	6,5
3,5525	1,1	4,7
3,553	3,3	2,5
3,5535	4,9	0,8
3,554	5,6	0,1
3,5545	5,6	0,3
3,555	5,2	0,9
3,5555	4,6	1,2
3,556	4,3	0,8
3,5565	5,0	0,0
3,557	7,0	-0,4
3,5575	9,7	0,1
3,558	12,3	1,2
3,5585	14,3	1,9
3,559	15,2	2,0
3,5595	15,0	1,8
3,56	14,0	2,2
3,5605	12,7	3,7
3,561	11,6	6,4
3,5615	10,9	9,2
3,562	10,3	10,7
3,5625	9,2	10,1
3,563	7,3	7,8
3,5635	5,1	4,3
3,564	3,1	0,8
3,5645	1,1	-1,8
3,565	-1,4	-3,0
3,5655	-4,7	-2,7
3,566	-8,3	-1,4
3,5665	-11,2	0,1
3,567	-12,7	1,3
3,5675	-12,8	2,2
3,568	-12,0	2,2
3,5685	-10,0	1,4
3,569	-7,3	-0,0
3,5695	-4,3	-1,5
3,57	-2,0	-2,3
3,5705	-0,5	-2,1
3,571	-0,2	-1,5
3,5715	-0,7	-0,8
3,572	-1,6	-0,2
3,5725	-2,5	0,3
3,573	-2,6	0,2
3,5735	-1,6	-0,8
3,574	0,5	-2,4
3,5745	3,3	-4,5
3,575	6,2	-6,7
3,5755	8,4	-8,7
3,576	9,6	-10,3
3,5765	9,7	-10,7
3,577	9,0	-9,8
3,5775	7,9	-7,4
3,578	7,3	-4,4
3,5785	7,8	-1,4
3,579	9,4	1,1
3,5795	11,4	2,6
3,58	13,3	3,1
3,5805	14,7	2,7
3,581	15,8	2,4
3,5815	17,1	3,4
3,582	18,4	6,1
3,5825	19,4	9,9
3,583	19,8	13,4
3,5835	19,7	15,7
3,584	19,0	16,8
3,5845	17,9	16,9
3,585	16,9	15,9
3,5855	16,1	13,6
3,586	15,0	9,8
3,5865	13,4	5,3
3,587	11,1	0,9
3,5875	8,7	-2,3
3,588	6,6	-3,8
3,5885	5,0	-3,8
3,589	4,0	-2,9
3,5895	3,7	-2,0
3,59	4,3	-1,6
3,5905	5,3	-2,3
3,591	6,2	-3,7
3,5915	6,3	-5,8
3,592	5,6	-7,8
3,5925	4,6	-9,3
3,593	3,7	-9,7
3,5935	2,8	-8,6
3,594	1,9	-6,1
3,5945	0,8	-2,9
3,595	-0,1	-0,3
3,5955	-0,8	1,2
3,596	-1,1	1,4
3,5965	-0,8	1,0
3,597	0,4	0,4
3,5975	2,2	-0,2
3,598	3,3	-0,5
3,5985	3,1	-0,8
3,599	1,5	-0,9
3,5995	-0,3	-0,9
3,6	-1,4	-0,8
3,6005	-1,6	-1,1
3,601	-1,3	-1,9
3,6015	-0,7	-3,6
3,602	-0,0	-6,0
3,6025	0,9	-8,5
3,603	2,0	-10,3
3,6035	3,2	-10,6
3,604	4,3	-9,3
3,6045	5,2	-7,0
3,605	5,6	-4,5
3,6055	5,6	-2,6
3,606	5,6	-1,6
3,6065	5,8	-1,9
3,607	6,5	-3,5
3,6075	7,4	-6,1
3,608	8,3	-8,8
3,6085	9,0	-11,2
3,609	9,4	-12,5
3,6095	9,8	-12,7
3,61	10,1	-11,6
3,6105	10,2	-9,1
3,611	9,9	-5,8
3,6115	9,7	-2,7
3,612	10,1	-0,5
3,6125	11,2	0,8
3,613	12,6	1,3
3,6135	13,6	1,6
3,614	14,0	1,9
3,6145	13,8	2,8
3,615	13,2	4,5
3,6155	12,3	7,1
3,616	11,3	9,4
3,6165	10,2	10,8
3,617	9,1	10,8
3,6175	8,1	9,8
3,618	7,6	8,1
3,6185	8,0	6,2
3,619	9,3	4,1
3,6195	11,1	2,1
3,62	12,9	0,5
3,6205	13,8	-0,8
3,621	13,4	-2,7
3,6215	11,3	-5,2
3,622	8,1	-8,0
3,6225	4,5	-10,3
3,623	1,5	-11,9
3,6235	-0,5	-13,4
3,624	-1,8	-15,1
3,6245	-2,3	-16,8
3,625	-2,0	-18,2
3,6255	-0,9	-18,8
3,626	0,7	-18,5
3,6265	2,0	-17,1
3,627	2,5	-14,6
3,6275	2,3	-11,3
3,628	2,3	-7,9
3,6285	2,8	-5,3
3,629	3,9	-4,0
3,6295	5,0	-4,0
3,63	6,2	-4,8
3,6305	7,5	-5,7
3,631	8,9	-5,9
3,6315	10,2	-4,7
3,632	11,2	-2,3
3,6325	11,8	0,9
3,633	12,2	3,9
3,6335	12,3	6,3
3,634	12,1	7,7
3,6345	11,9	8,3
3,635	11,8	8,0
3,6355	12,4	6,7
3,636	13,5	4,8
3,6365	14,8	3,5
3,637	15,8	3,7
3,6375	16,5	5,6
3,638	16,8	8,3
3,6385	16,7	10,9
3,639	16,1	12,3
3,6395	14,6	11,4
3,64	12,7	7,6
3,6405	10,9	2,0
3,641	9,8	-3,9
3,6415	9,3	-8,7
3,642	9,0	-12,2
3,6425	8,6	-14,9
3,643	7,8	-16,8
3,6435	6,7	-17,5
3,644	5,2	-16,6
3,6445	3,8	-14,2
3,645	3,2	-11,1
3,6455	3,5	-7,9
3,646	4,9	-4,9
3,6465	7,0	-2,4
3,647	9,2	-0,4
3,6475	10,6	1,0
3,648	10,6	2,4
3,6485	9,3	4,0
3,649	7,3	5,5
3,6495	5,0	6,6
3,65	3,1	6,9
3,6505	1,8	6,9
3,651	1,8	6,7
3,6515	3,2	6,2
3,652	5,6	5,1
3,6525	8,4	3,3
3,653	10,8	1,0
3,6535	12,1	-1,1
3,654	11,9	-2,7
3,6545	10,5	-3,8
3,655	8,2	-4,3
3,6555	5,9	-4,6
3,656	4,2	-4,9
3,6565	3,5	-5,9
3,657	4,0	-7,8
3,6575	5,3	-10,5
3,658	6,8	-13,1
3,6585	7,8	-15,1
3,659	8,6	-16,0
3,6595	9,4	-15,7
3,66	10,2	-14,1
3,6605	11,0	-11,3
3,661	11,3	-7,6
3,6615	11,1	-4,1
3,662	10,4	-1,5
3,6625	9,5	-0,5
3,663	8,6	-0,8
3,6635	8,2	-1,9
3,664	8,4	-3,1
3,6645	9,7	-3,6
3,665	11,8	-2,7
3,6655	14,7	0,0
3,666	17,9	4,0
3,6665	20,6	8,1
3,667	21,9	11,3
3,6675	21,8	12,9
3,668	20,8	12,9
3,6685	19,5	11,4
3,669	18,7	9,0
3,6695	18,4	6,2
3,67	18,2	3,6
3,6705	17,5	1,7
3,671	16,3	0,3
3,6715	14,7	-0,5
3,672	12,8	-1,0
3,6725	10,6	-1,2
3,673	8,4	-1,6
3,6735	7,0	-2,8
3,674	6,6	-5,0
3,6745	7,0	-7,4
3,675	7,7	-9,7
3,6755	8,1	-11,4
3,676	7,7	-12,6
3,6765	6,5	-13,0
3,677	4,7	-11,9
3,6775	2,8	-9,2
3,678	1,6	-5,4
3,6785	1,1	-1,8
3,679	1,2	0,3
3,6795	1,6	0,8
3,68	1,6	-0,0
3,6805	1,1	-1,7
3,681	0,2	-3,3
3,6815	-0,8	-3,9
3,682	-1,2	-2,8
3,6825	-0,6	-0,2
3,683	0,7	3,0
3,6835	1,9	5,4
3,684	2,4	6,4
3,6845	2,0	5,6
3,685	1,7	3,8
3,6855	2,5	1,8
3,686	4,5	-0,1
3,6865	6,8	-1,4
3,687	8,7	-1,9
3,6875	9,9	-1,4
3,688	10,7	0,0
3,6885	11,1	1,9
3,689	11,1	3,6
3,6895	10,8	4,6
3,69	10,7	4,3
3,6905	11,2	2,8
3,691	12,1	0,7
3,6915	13,1	-1,3
3,692	13,9	-2,7
3,6925	14,6	-3,7
3,693	15,0	-4,5
3,6935	15,1	-5,2
3,694	15,1	-5,1
3,6945	15,5	-3,9
3,695	16,9	-2,1
3,6955	19,0	-0,3
3,696	20,8	0,8
3,6965	21,6	1,1
3,697	21,1	0,8
3,6975	19,8	0,0
3,698	18,3	-0,6
3,6985	16,9	-0,5
3,699	15,7	0,3
3,6995	14,4	1,5
3,7	13,0	2,2
3,7005	11,3	1,9
3,701	9,4	0,3
3,7015	7,4	-2,5
3,702	5,8	-6,0
3,7025	5,0	-9,3
3,703	5,0	-11,5
3,7035	5,3	-12,0
3,704	5,2	-11,4
3,7045	4,3	-10,5
3,705	2,6	-9,7
3,7055	0,9	-9,2
3,706	-0,2	-9,0
3,7065	-0,3	-9,5
3,707	0,6	-10,8
3,7075	1,8	-12,8
3,708	2,6	-14,9
3,7085	2,7	-16,8
3,709	2,5	-18,2
3,7095	2,1	-19,1
3,71	1,4	-19,2
3,7105	0,0	-18,5
3,711	-2,2	-17,1
3,7115	-4,4	-15,3
3,712	-5,7	-13,5
3,7125	-5,5	-12,3
3,713	-3,8	-11,3
3,7135	-0,8	-10,4
3,714	2,9	-9,2
3,7145	6,5	-7,8
3,715	9,4	-5,7
3,7155	11,6	-2,5
3,716	13,8	1,9
3,7165	16,6	7,0
3,717	19,4	11,6
3,7175	21,6	14,5
3,718	22,6	14,9
3,7185	22,1	12,4
3,719	20,3	7,5
3,7195	17,3	1,0
3,72	13,6	-5,2
3,7205	10,1	-9,7
3,721	7,2	-11,7
3,7215	5,2	-11,6
3,722	3,9	-10,5
3,7225	3,0	-9,6
3,723	2,4	-9,7
3,7235	2,8	-10,9
3,724	4,2	-12,5
3,7245	6,2	-13,6
3,725	8,3	-13,9
3,7255	9,8	-13,7
3,726	10,4	-13,1
3,7265	10,3	-11,9
3,727	9,7	-9,8
3,7275	8,9	-6,3
3,728	7,9	-2,3
3,7285	6,8	0,8
3,729	5,3	2,1
3,7295	3,8	1,3
3,73	2,4	-0,6
3,7305	1,4	-3,1
3,731	0,8	-5,5
3,7315	0,1	-7,0
3,732	-0,4	-7,0
3,7325	-0,8	-5,7
3,733	-1,1	-3,7
3,7335	-1,3	-1,9
3,734	-1,6	-0,6
3,7345	-1,8	-0,1
3,735	-1,4	-0,4
3,7355	0,3	-1,2
3,736	3,2	-2,3
