Interval=	0,0005 s
ExcelDateTime=	4,5911482685740768e+004	11/09/2025 11:35:04,048002
TimeFormat=	StartOfBlock
DateFormat=	
ChannelTitle=	Biceps	Triceps
Range=	1000,0 µV	1000,0 µV
0	-0,3	0,7
0,0005	-3,2	8,7
0,001	-11,9	32,5
0,0015	-26,4	71,8
0,002	-42,5	114,7
0,0025	-54,3	145,3
0,003	-59,8	158,5
0,0035	-60,5	158,8
0,004	-59,0	153,9
0,0045	-57,1	149,2
0,005	-55,3	146,8
0,0055	-54,2	147,8
0,006	-54,8	152,9
0,0065	-57,5	162,0
0,007	-61,9	172,4
0,0075	-66,1	179,7
0,008	-68,3	181,2
0,0085	-68,4	177,3
0,009	-66,5	170,0
0,0095	-62,9	160,6
0,01	-58,6	150,5
0,0105	-54,9	143,1
0,011	-53,6	141,8
0,0115	-54,4	147,0
0,012	-56,0	155,6
0,0125	-56,8	163,6
0,013	-56,9	169,0
0,0135	-56,8	171,3
0,014	-56,3	169,4
0,0145	-54,2	162,8
0,015	-49,8	152,3
0,0155	-44,3	141,3
0,016	-39,5	133,8
0,0165	-37,3	132,0
0,017	-37,9	135,5
0,0175	-41,1	142,8
0,018	-46,3	151,9
0,0185	-52,4	160,3
0,019	-57,7	164,2
0,0195	-60,3	161,5
0,02	-59,9	153,9
0,0205	-57,9	145,3
0,021	-56,0	139,1
0,0215	-55,2	136,0
0,022	-56,0	135,9
0,0225	-58,9	139,7
0,023	-64,4	147,7
0,0235	-71,8	158,6
0,024	-79,0	168,7
0,0245	-83,8	174,4
0,025	-84,9	174,8
0,0255	-82,7	170,7
0,026	-77,9	163,4
0,0265	-71,5	155,0
0,027	-65,1	148,3
0,0275	-61,1	147,0
0,028	-60,3	151,9
0,0285	-62,1	160,0
0,029	-64,5	167,2
0,0295	-65,8	171,2
0,03	-65,5	171,9
0,0305	-63,7	169,5
0,031	-60,4	163,2
0,0315	-56,1	153,0
0,032	-51,7	140,9
0,0325	-48,4	131,2
0,033	-47,1	127,1
0,0335	-47,7	129,2
0,034	-49,8	135,8
0,0345	-53,2	145,2
0,035	-57,4	154,9
0,0355	-61,3	161,6
0,036	-63,6	161,8
0,0365	-63,6	155,8
0,037	-62,0	147,1
0,0375	-60,0	139,8
0,038	-58,0	135,6
0,0385	-56,6	134,4
0,039	-56,6	136,7
0,0395	-58,7	143,1
0,04	-62,7	153,2
0,0405	-67,0	164,2
0,041	-69,4	172,4
0,0415	-69,0	175,9
0,042	-66,1	174,7
0,0425	-61,9	169,7
0,043	-57,2	161,9
0,0435	-53,2	153,6
0,044	-51,4	148,7
0,0445	-52,9	149,8
0,045	-56,8	155,4
0,0455	-61,1	162,1
0,046	-64,0	166,9
0,0465	-65,6	169,2
0,047	-66,3	168,5
0,0475	-66,3	163,6
0,048	-65,3	153,9
0,0485	-62,7	141,4
0,049	-59,5	130,3
0,0495	-57,6	124,4
0,05	-57,7	124,6
0,0505	-59,8	129,8
0,051	-62,7	138,9
0,0515	-65,6	150,3
0,052	-67,4	160,8
0,0525	-67,4	165,4
0,053	-65,1	162,5
0,0535	-61,4	154,7
0,054	-57,7	146,5
0,0545	-54,8	141,1
0,055	-52,8	138,8
0,0555	-51,7	140,0
0,056	-52,2	145,5
0,0565	-54,9	155,3
0,057	-59,3	167,5
0,0575	-63,8	178,0
0,058	-66,5	183,5
0,0585	-66,9	183,5
0,059	-65,5	179,1
0,0595	-62,9	171,8
0,06	-59,8	163,3
0,0605	-57,8	157,1
0,061	-58,3	156,4
0,0615	-61,3	161,0
0,062	-65,5	167,7
0,0625	-69,3	172,8
0,063	-72,1	175,1
0,0635	-73,6	174,7
0,064	-73,5	170,8
0,0645	-71,0	163,1
0,065	-66,4	151,9
0,0655	-60,9	140,3
0,066	-56,5	132,8
0,0665	-54,2	131,5
0,067	-54,1	135,4
0,0675	-55,9	142,5
0,068	-59,2	151,0
0,0685	-62,7	159,2
0,069	-64,7	164,0
0,0695	-63,9	163,0
0,07	-61,0	156,8
0,0705	-58,0	148,6
0,071	-56,4	141,8
0,0715	-56,4	137,7
0,072	-57,5	137,1
0,0725	-59,8	140,8
0,073	-63,4	149,3
0,0735	-68,1	161,7
0,074	-72,2	173,9
0,0745	-74,3	182,0
0,075	-74,0	184,2
0,0755	-71,8	180,9
0,076	-68,6	173,9
0,0765	-64,3	164,7
0,077	-60,1	156,1
0,0775	-57,5	152,2
0,078	-58,0	154,4
0,0785	-60,9	160,4
0,079	-64,6	166,1
0,0795	-67,5	169,4
0,08	-68,9	170,5
0,0805	-68,1	169,8
0,081	-64,3	166,7
0,0815	-57,6	161,0
0,082	-49,1	153,9
0,0825	-41,6	148,6
0,083	-37,0	146,9
0,0835	-35,8	149,1
0,084	-37,3	154,1
0,0845	-40,6	161,1
0,085	-45,3	169,1
0,0855	-49,7	175,0
0,086	-52,5	175,6
0,0865	-53,3	170,3
0,087	-53,2	161,9
0,0875	-53,5	154,2
0,088	-54,7	148,9
0,0885	-56,5	146,8
0,089	-59,1	148,7
0,0895	-62,9	155,2
0,09	-68,1	166,2
0,0905	-73,9	178,3
0,091	-78,5	187,3
0,0915	-81,0	190,5
0,092	-80,8	187,8
0,0925	-78,6	180,6
0,093	-74,4	170,8
0,0935	-69,1	160,7
0,094	-64,4	154,5
0,0945	-61,6	154,9
0,095	-60,8	160,9
0,0955	-60,9	168,4
0,096	-60,7	174,2
0,0965	-60,0	177,5
0,097	-58,5	178,4
0,0975	-55,7	175,8
0,098	-50,9	169,0
0,0985	-44,5	158,7
0,099	-38,2	148,5
0,0995	-34,3	142,2
0,1	-33,5	141,1
0,1005	-35,6	144,3
0,101	-40,0	150,8
0,1015	-45,8	159,3
0,102	-51,2	167,1
0,1025	-54,5	170,2
0,103	-54,8	166,9
0,1035	-53,3	159,2
0,104	-51,6	151,3
0,1045	-50,7	146,1
0,105	-50,6	144,3
0,1055	-51,5	146,1
0,106	-54,3	152,0
0,1065	-59,7	161,9
0,107	-66,9	173,8
0,1075	-73,7	184,0
0,108	-78,0	189,7
0,1085	-78,9	190,1
0,109	-76,9	186,1
0,1095	-73,0	179,0
0,11	-68,3	170,2
0,1105	-64,6	162,8
0,111	-63,7	160,3
0,1115	-65,8	163,2
0,112	-69,4	169,1
0,1125	-72,6	174,9
0,113	-74,6	179,2
0,1135	-75,8	181,5
0,114	-76,3	180,3
0,1145	-75,5	174,2
0,115	-73,4	163,2
0,1155	-71,0	150,3
0,116	-69,9	140,3
0,1165	-71,0	135,6
0,117	-73,5	136,6
0,1175	-76,7	141,8
0,118	-79,7	149,8
0,1185	-82,1	158,5
0,119	-82,9	164,1
0,1195	-81,3	163,7
0,12	-77,3	157,9
0,1205	-72,0	150,0
0,121	-66,9	143,5
0,1215	-62,7	139,5
0,122	-60,0	138,5
0,1225	-59,7	141,5
0,123	-61,8	149,4
0,1235	-65,7	161,4
0,124	-69,8	173,4
0,1245	-72,3	180,8
0,125	-72,3	181,8
0,1255	-69,9	178,0
0,126	-65,5	171,3
0,1265	-60,0	163,4
0,127	-55,0	156,4
0,1275	-52,2	153,8
0,128	-52,4	156,8
0,1285	-54,8	163,7
0,129	-57,9	170,4
0,1295	-60,4	174,3
0,13	-62,0	175,5
0,1305	-62,4	173,6
0,131	-61,5	167,8
0,1315	-59,1	157,8
0,132	-55,6	145,7
0,1325	-52,4	136,0
0,133	-50,9	131,9
0,1335	-51,4	133,8
0,134	-53,7	140,0
0,1345	-57,2	148,8
0,135	-61,0	159,0
0,1355	-63,7	167,8
0,136	-63,9	171,3
0,1365	-61,5	168,8
0,137	-57,9	162,6
0,1375	-54,9	156,3
0,138	-53,6	151,8
0,1385	-53,8	149,3
0,139	-55,5	149,7
0,1395	-58,6	154,1
0,14	-62,9	162,5
0,1405	-67,4	172,5
0,141	-70,5	179,7
0,1415	-71,2	181,5
0,142	-69,6	178,0
0,1425	-66,7	170,7
0,143	-63,4	160,9
0,1435	-60,6	151,0
0,144	-59,2	144,5
0,1445	-60,1	144,5
0,145	-62,7	150,0
0,1455	-65,5	157,1
0,146	-67,3	162,5
0,1465	-67,8	165,3
0,147	-66,8	165,2
0,1475	-63,6	161,4
0,148	-58,1	153,4
0,1485	-50,8	142,4
0,149	-43,8	131,9
0,1495	-39,4	125,8
0,15	-38,3	125,4
0,1505	-40,3	129,7
0,151	-44,2	136,8
0,1515	-49,4	145,5
0,152	-54,7	153,2
0,1525	-58,0	156,6
0,153	-58,1	154,3
0,1535	-55,5	148,4
0,154	-51,6	142,3
0,1545	-48,1	137,9
0,155	-45,9	135,7
0,1555	-45,8	136,5
0,156	-48,3	141,7
0,1565	-53,4	151,7
0,157	-60,3	163,9
0,1575	-66,9	173,8
0,158	-71,4	178,0
0,1585	-73,2	176,2
0,159	-72,4	170,1
0,1595	-69,3	161,7
0,16	-64,8	152,6
0,1605	-60,4	145,8
0,161	-58,4	144,6
0,1615	-59,4	148,6
0,162	-62,6	154,8
0,1625	-66,3	159,7
0,163	-69,1	161,8
0,1635	-70,6	161,7
0,164	-69,9	158,9
0,1645	-66,7	152,5
0,165	-60,9	142,6
0,1655	-53,9	131,6
0,166	-47,8	123,7
0,1665	-44,3	121,4
0,167	-43,5	124,5
0,1675	-44,9	131,2
0,168	-47,8	139,8
0,1685	-51,4	148,3
0,169	-54,1	153,3
0,1695	-54,5	152,4
0,17	-52,8	146,3
0,1705	-50,2	138,2
0,171	-48,4	131,4
0,1715	-47,6	126,9
0,172	-48,1	125,2
0,1725	-50,0	127,7
0,173	-53,3	135,1
0,1735	-57,4	147,0
0,174	-60,8	159,6
0,1745	-62,2	168,6
0,175	-61,3	171,7
0,1755	-59,1	169,0
0,176	-56,3	162,0
0,1765	-53,0	152,5
0,177	-49,9	143,3
0,1775	-48,3	138,2
0,178	-48,9	138,8
0,1785	-50,9	143,3
0,179	-53,0	148,0
0,1795	-54,3	150,5
0,18	-54,6	150,9
0,1805	-53,7	148,8
0,181	-51,2	143,6
0,1815	-46,9	135,1
0,182	-41,7	124,8
0,1825	-37,3	116,8
0,183	-35,2	114,1
0,1835	-35,8	116,7
0,184	-38,5	123,0
0,1845	-42,8	131,4
0,185	-48,1	140,6
0,1855	-52,6	147,8
0,186	-54,8	149,7
0,1865	-54,4	145,8
0,187	-52,5	138,5
0,1875	-50,8	131,3
0,188	-50,3	125,9
0,1885	-51,5	122,6
0,189	-54,4	122,5
0,1895	-59,2	126,6
0,19	-65,6	135,0
0,1905	-71,9	145,0
0,191	-76,0	152,3
0,1915	-76,5	154,4
0,192	-73,5	151,7
0,1925	-68,3	145,6
0,193	-61,9	137,4
0,1935	-55,3	129,2
0,194	-50,4	124,8
0,1945	-48,5	127,1
0,195	-49,4	135,1
0,1955	-51,8	144,6
0,196	-53,7	151,2
0,1965	-54,6	153,9
0,197	-54,2	152,9
0,1975	-52,5	147,9
0,198	-49,0	138,8
0,1985	-44,2	126,9
0,199	-39,3	116,0
0,1995	-36,2	110,1
0,2	-35,5	110,1
0,2005	-37,0	114,9
0,201	-40,2	122,5
0,2015	-44,6	131,2
0,202	-48,9	138,4
0,2025	-51,1	140,9
0,203	-50,3	137,6
0,2035	-47,3	130,6
0,204	-44,1	123,3
0,2045	-41,8	118,0
0,205	-40,4	114,8
0,2055	-40,3	114,5
0,206	-42,2	118,1
0,2065	-46,3	125,9
0,207	-51,5	136,3
0,2075	-55,9	145,5
0,208	-57,8	150,5
0,2085	-56,9	150,1
0,209	-53,8	145,1
0,2095	-49,5	136,7
0,21	-44,9	126,8
0,2105	-41,7	118,6
0,211	-41,3	116,0
0,2115	-43,7	119,8
0,212	-47,5	127,2
0,2125	-50,8	134,1
0,213	-52,4	138,6
0,2135	-52,7	140,5
0,214	-51,7	139,2
0,2145	-49,3	133,7
0,215	-45,8	123,8
0,2155	-42,2	112,8
0,216	-40,1	104,8
0,2165	-40,3	102,3
0,217	-42,4	104,9
0,2175	-45,9	110,7
0,218	-50,1	118,6
0,2185	-54,1	127,1
0,219	-56,3	132,9
0,2195	-55,8	133,2
0,22	-53,2	128,2
0,2205	-50,3	120,9
0,221	-48,5	114,5
0,2215	-47,9	109,8
0,222	-48,0	107,1
0,2225	-48,6	107,9
0,223	-50,1	113,6
0,2235	-52,6	123,7
0,224	-54,9	134,5
0,2245	-55,4	141,9
0,225	-53,3	144,1
0,2255	-49,0	142,0
0,226	-43,4	137,0
0,2265	-37,5	130,0
0,227	-32,6	123,1
0,2275	-30,2	119,9
0,228	-31,0	122,4
0,2285	-34,1	128,7
0,229	-38,1	135,1
0,2295	-41,8	138,9
0,23	-44,5	139,7
0,2305	-45,8	137,4
0,231	-44,7	131,5
0,2315	-41,1	121,7
0,232	-35,8	109,6
0,2325	-30,8	99,2
0,233	-27,5	93,7
0,2335	-26,5	94,1
0,234	-27,7	99,0
0,2345	-30,9	107,0
0,235	-35,6	116,5
0,2355	-40,0	124,8
0,236	-42,5	128,4
0,2365	-42,7	126,0
0,237	-42,0	119,9
0,2375	-41,9	113,3
0,238	-42,8	108,9
0,2385	-43,8	107,1
0,239	-45,1	108,2
0,2395	-47,7	112,7
0,24	-52,4	119,9
0,2405	-58,6	127,8
0,241	-64,1	132,8
0,2415	-66,9	133,2
0,242	-66,4	129,5
0,2425	-63,2	123,1
0,243	-58,5	115,0
0,2435	-53,5	106,8
0,244	-50,0	101,6
0,2445	-49,2	102,4
0,245	-50,4	108,9
0,2455	-51,9	117,9
0,246	-51,9	125,8
0,2465	-50,2	131,4
0,247	-47,4	134,2
0,2475	-43,8	132,5
0,248	-39,3	125,1
0,2485	-34,2	112,9
0,249	-29,8	100,0
0,2495	-27,6	91,3
0,25	-27,7	88,9
0,2505	-29,5	92,4
0,251	-32,5	99,9
0,2515	-36,2	109,9
0,252	-40,2	119,8
0,2525	-43,0	125,5
0,253	-43,5	124,8
0,2535	-42,1	119,3
0,254	-40,1	112,3
0,2545	-38,8	106,4
0,255	-38,2	102,5
0,2555	-38,4	101,3
0,256	-40,0	104,3
0,2565	-43,3	112,0
0,257	-47,8	122,8
0,2575	-51,6	132,4
0,258	-53,5	136,9
0,2585	-52,9	135,6
0,259	-50,4	130,0
0,2595	-46,8	121,8
0,26	-43,0	112,9
0,2605	-40,0	106,3
0,261	-39,3	105,5
0,2615	-41,3	111,3
0,262	-45,5	120,3
0,2625	-50,4	128,0
0,263	-55,0	131,6
0,2635	-58,9	130,9
0,264	-61,0	125,9
0,2645	-60,6	116,5
0,265	-57,1	104,0
0,2655	-51,8	91,3
0,266	-46,9	83,1
0,2665	-43,9	81,5
0,267	-42,9	86,1
0,2675	-43,7	94,9
0,268	-45,8	105,8
0,2685	-48,9	116,4
0,269	-51,8	123,1
0,2695	-53,0	122,7
0,27	-52,1	116,0
0,2705	-49,8	106,6
0,271	-47,0	98,4
0,2715	-44,2	93,4
0,272	-42,0	91,8
0,2725	-41,3	94,9
0,273	-42,8	103,1
0,2735	-46,3	115,4
0,274	-50,1	128,2
0,2745	-52,3	137,0
0,275	-51,8	140,3
0,2755	-49,1	138,5
0,276	-45,1	133,2
0,2765	-40,6	125,6
0,277	-36,9	118,4
0,2775	-35,5	115,2
0,278	-37,2	117,9
0,2785	-41,1	124,6
0,279	-45,2	131,5
0,2795	-47,9	135,8
0,28	-49,0	137,2
0,2805	-48,3	135,8
0,281	-45,8	130,3
0,2815	-41,5	119,9
0,282	-35,9	106,1
0,2825	-31,0	92,9
0,283	-28,0	84,3
0,2835	-27,5	81,8
0,284	-28,9	85,3
0,2845	-31,6	93,3
0,285	-35,0	104,1
0,2855	-37,9	114,2
0,286	-38,6	119,4
0,2865	-36,5	118,1
0,287	-33,0	112,4
0,2875	-30,3	106,1
0,288	-29,6	101,6
0,2885	-30,8	99,7
0,289	-33,9	101,5
0,2895	-38,6	108,1
0,29	-44,8	119,1
0,2905	-51,5	131,8
0,291	-57,0	141,7
0,2915	-60,3	146,2
0,292	-61,8	144,8
0,2925	-61,9	138,7
0,293	-61,0	129,5
0,2935	-59,5	119,4
0,294	-58,3	111,9
0,2945	-59,3	110,3
0,295	-62,3	113,8
0,2955	-66,2	119,3
0,296	-69,1	123,1
0,2965	-70,0	124,6
0,297	-68,4	124,1
0,2975	-64,1	121,1
0,298	-57,2	114,8
0,2985	-48,4	105,3
0,299	-39,7	95,1
0,2995	-32,8	88,4
0,3	-29,2	87,0
0,3005	-28,9	90,3
0,301	-31,5	96,7
0,3015	-35,9	104,7
0,302	-40,7	112,2
0,3025	-43,8	115,5
0,303	-43,9	113,0
0,3035	-41,3	106,4
0,304	-37,4	99,6
0,3045	-33,7	95,5
0,305	-30,7	94,4
0,3055	-28,9	96,8
0,306	-29,1	103,3
0,3065	-31,5	113,6
0,307	-35,8	125,7
0,3075	-40,6	135,5
0,308	-43,8	139,5
0,3085	-44,6	137,3
0,309	-43,1	130,5
0,3095	-40,0	121,1
0,31	-36,2	110,9
0,3105	-32,8	103,3
0,311	-31,5	101,8
0,3115	-32,9	106,7
0,312	-36,3	115,0
0,3125	-40,4	122,5
0,313	-43,8	127,3
0,3135	-46,3	129,5
0,314	-47,2	128,7
0,3145	-46,5	123,6
0,315	-44,3	114,0
0,3155	-42,0	102,3
0,316	-41,0	93,0
0,3165	-42,2	88,6
0,317	-45,2	89,3
0,3175	-49,1	93,9
0,318	-53,4	101,6
0,3185	-57,5	110,7
0,319	-60,0	117,4
0,3195	-59,8	118,0
0,32	-57,3	112,2
0,3205	-54,0	103,6
0,321	-51,1	96,3
0,3215	-49,2	91,9
0,322	-48,2	91,0
0,3225	-48,2	94,2
0,323	-49,6	102,0
0,3235	-52,4	113,5
0,324	-55,3	125,3
0,3245	-56,4	133,4
0,325	-54,7	136,0
0,3255	-50,6	133,6
0,326	-45,3	127,4
0,3265	-39,8	118,9
0,327	-35,6	110,4
0,3275	-33,8	105,6
0,328	-35,0	107,2
0,3285	-37,9	113,7
0,329	-40,6	121,5
0,3295	-41,5	127,6
0,33	-40,8	131,2
0,3305	-38,7	131,8
0,331	-35,0	128,8
0,3315	-29,9	121,5
0,332	-24,0	110,6
0,3325	-19,3	99,7
0,333	-17,3	92,4
0,3335	-18,4	90,5
0,334	-22,0	93,6
0,3345	-27,0	100,4
0,335	-32,6	109,2
0,3355	-37,3	116,8
0,336	-39,5	119,4
0,3365	-38,3	116,0
0,337	-34,4	109,6
0,3375	-29,5	104,1
0,338	-25,3	101,3
0,3385	-22,9	101,1
0,339	-23,3	103,4
0,3395	-26,7	109,2
0,34	-32,6	118,8
0,3405	-39,8	130,3
0,341	-46,5	139,6
0,3415	-51,3	143,7
0,342	-54,3	142,0
0,3425	-55,7	136,0
0,343	-55,6	127,2
0,3435	-54,4	117,6
0,344	-53,5	110,8
0,3445	-54,7	110,2
0,345	-58,1	115,3
0,3455	-62,2	122,3
0,346	-65,5	127,0
0,3465	-67,7	127,7
0,347	-68,8	124,6
0,3475	-68,8	117,7
0,348	-66,7	107,0
0,3485	-62,0	93,7
0,349	-55,8	81,2
0,3495	-49,9	73,8
0,35	-45,9	73,0
0,3505	-44,3	77,8
0,351	-44,8	86,2
0,3515	-47,1	96,3
0,352	-50,0	105,6
0,3525	-52,3	110,4
0,353	-52,6	108,4
0,3535	-51,1	101,5
0,354	-49,2	93,8
0,3545	-47,7	88,6
0,355	-47,0	86,6
0,3555	-47,1	87,8
0,356	-48,3	93,3
0,3565	-50,9	103,6
0,357	-54,5	116,7
0,3575	-57,7	128,0
0,358	-59,1	133,7
0,3585	-58,3	132,9
0,359	-55,4	127,4
0,3595	-50,9	119,3
0,36	-45,3	110,7
0,3605	-40,1	104,4
0,361	-37,0	103,7
0,3615	-37,1	108,9
0,362	-39,3	116,8
0,3625	-41,7	123,5
0,363	-42,9	126,8
0,3635	-43,0	127,2
0,364	-41,6	124,4
0,3645	-38,5	117,7
0,365	-33,5	107,0
0,3655	-27,8	94,5
0,366	-23,2	84,5
0,3665	-21,4	79,9
0,367	-22,6	81,2
0,3675	-26,0	86,8
0,368	-31,0	95,3
0,3685	-36,5	104,5
0,369	-40,8	111,4
0,3695	-41,8	112,8
0,37	-39,6	108,9
0,3705	-35,6	102,7
0,371	-32,1	97,3
0,3715	-30,4	93,7
0,372	-31,1	91,9
0,3725	-34,5	93,0
0,373	-40,7	98,2
0,3735	-48,4	106,7
0,374	-55,6	115,4
0,3745	-59,7	120,3
0,375	-59,7	120,3
0,3755	-55,9	116,8
0,376	-50,0	111,7
0,3765	-43,7	106,0
0,377	-38,5	100,9
0,3775	-36,1	99,3
0,378	-36,7	103,2
0,3785	-39,2	111,2
0,379	-41,9	119,7
0,3795	-43,7	125,5
0,38	-44,4	128,1
0,3805	-44,1	127,5
0,381	-42,3	122,7
0,3815	-38,7	112,9
0,382	-34,1	99,5
0,3825	-30,5	86,6
0,383	-29,6	78,1
0,3835	-31,6	75,8
0,384	-35,5	79,0
0,3845	-40,8	86,7
0,385	-47,1	96,8
0,3855	-53,2	105,9
0,386	-57,2	109,5
0,3865	-57,8	106,3
0,387	-56,1	99,2
0,3875	-53,8	92,2
0,388	-52,2	87,8
0,3885	-51,7	85,5
0,389	-52,4	85,9
0,3895	-54,8	90,1
0,39	-58,8	98,6
0,3905	-63,1	109,2
0,391	-65,7	117,5
0,3915	-65,3	120,4
0,392	-62,3	117,6
0,3925	-57,5	110,6
0,393	-51,8	101,1
0,3935	-46,2	91,1
0,394	-42,0	84,1
0,3945	-40,7	83,3
0,395	-42,0	88,1
0,3955	-44,6	95,3
0,396	-46,8	101,3
0,3965	-48,1	104,9
0,397	-48,4	106,2
0,3975	-47,3	104,3
0,398	-44,3	98,2
0,3985	-39,4	88,2
0,399	-34,0	77,5
0,3995	-30,0	70,0
0,4	-28,6	67,8
0,4005	-30,1	70,4
0,401	-33,6	76,7
0,4015	-38,5	85,5
0,402	-43,8	94,6
0,4025	-47,6	99,8
0,403	-48,8	98,8
0,4035	-47,2	92,8
0,404	-43,8	85,8
0,4045	-39,8	80,7
0,405	-36,2	78,3
0,4055	-33,8	78,9
0,406	-33,3	83,6
0,4065	-35,2	92,7
0,407	-38,8	104,6
0,4075	-42,0	115,0
0,408	-43,5	120,2
0,4085	-42,6	119,4
0,409	-39,7	113,9
0,4095	-35,7	106,0
0,41	-31,3	97,0
0,4105	-27,8	89,6
0,411	-26,8	87,0
0,4115	-28,5	90,1
0,412	-31,9	96,6
0,4125	-35,1	103,3
0,413	-37,0	108,2
0,4135	-37,9	111,2
0,414	-38,2	111,1
0,4145	-37,6	106,3
0,415	-36,2	96,2
0,4155	-34,3	83,3
0,416	-33,1	72,5
0,4165	-33,7	67,3
0,417	-36,1	67,9
0,4175	-39,8	72,1
0,418	-44,0	78,3
0,4185	-47,6	85,3
0,419	-49,4	90,1
0,4195	-48,4	89,6
0,42	-45,2	83,8
0,4205	-41,3	76,0
0,421	-38,3	69,8
0,4215	-36,7	66,3
0,422	-36,3	65,5
0,4225	-37,1	68,0
0,423	-39,1	74,9
0,4235	-42,0	85,7
0,424	-44,7	97,4
0,4245	-45,7	105,7
0,425	-44,6	108,3
0,4255	-41,4	105,5
0,426	-36,9	98,6
0,4265	-31,8	89,3
0,427	-26,9	80,1
0,4275	-24,1	75,1
0,428	-24,3	76,7
0,4285	-26,7	83,6
0,429	-29,8	91,8
0,4295	-32,1	98,3
0,43	-33,6	102,2
0,4305	-34,1	103,1
0,431	-33,0	99,8
0,4315	-29,8	91,7
0,432	-25,3	80,1
0,4325	-21,5	69,5
0,433	-20,2	63,4
0,4335	-21,6	63,0
0,434	-25,0	67,2
0,4345	-29,5	74,3
0,435	-34,6	82,8
0,4355	-39,5	89,9
0,436	-42,7	91,8
0,4365	-43,4	87,5
0,437	-41,9	79,3
0,4375	-39,3	71,3
0,438	-37,2	65,9
0,4385	-36,1	63,3
0,439	-36,8	64,3
0,4395	-39,3	70,2
0,44	-43,8	80,8
0,4405	-49,3	93,3
0,441	-54,0	102,9
0,4415	-56,4	106,2
0,442	-56,3	103,4
0,4425	-54,0	96,4
0,443	-49,9	87,2
0,4435	-44,9	77,8
0,444	-40,5	71,5
0,4445	-38,2	71,1
0,445	-38,3	76,8
0,4455	-39,3	85,3
0,446	-39,5	93,3
0,4465	-38,2	99,5
0,447	-36,0	103,3
0,4475	-33,5	102,7
0,448	-30,9	96,0
0,4485	-28,0	83,5
0,449	-24,9	69,1
0,4495	-22,8	58,1
0,45	-22,2	53,6
0,4505	-23,2	55,6
0,451	-25,8	62,1
0,4515	-29,8	71,3
0,452	-34,4	80,9
0,4525	-37,8	87,3
0,453	-38,4	87,5
0,4535	-36,6	81,8
0,454	-34,1	73,5
0,4545	-32,4	66,0
0,455	-31,8	61,2
0,4555	-31,9	60,2
0,456	-32,9	64,2
0,4565	-35,1	73,5
0,457	-38,0	86,4
0,4575	-40,6	98,2
0,458	-41,6	104,9
0,4585	-40,4	105,3
0,459	-37,4	100,8
0,4595	-33,1	93,7
0,46	-28,0	85,8
0,4605	-23,4	79,7
0,461	-21,2	78,8
0,4615	-22,4	83,9
0,462	-26,1	92,3
0,4625	-30,9	100,0
0,463	-35,3	104,5
0,4635	-38,7	105,6
0,464	-40,5	103,1
0,4645	-40,1	96,4
0,465	-37,8	85,2
0,4655	-34,2	71,3
0,466	-31,2	58,8
0,4665	-30,4	51,1
0,467	-31,9	48,8
0,4675	-35,0	51,2
0,468	-38,9	57,1
0,4685	-42,9	65,0
0,469	-45,9	71,5
0,4695	-46,8	72,9
0,47	-45,5	68,5
0,4705	-42,9	61,0
0,471	-40,3	54,4
0,4715	-38,5	50,6
0,472	-37,9	49,8
0,4725	-38,7	52,7
0,473	-41,2	60,1
0,4735	-45,1	71,5
0,474	-49,0	83,7
0,4745	-51,3	92,1
0,475	-51,3	94,8
0,4755	-49,3	92,3
0,476	-45,9	86,2
0,4765	-41,8	78,1
0,477	-38,0	70,3
0,4775	-35,6	66,6
0,478	-36,0	69,1
0,4785	-38,8	76,3
0,479	-42,6	84,5
0,4795	-46,0	90,9
0,48	-48,2	95,1
0,4805	-48,7	96,5
0,481	-47,2	93,5
0,4815	-43,6	85,2
0,482	-38,4	72,9
0,4825	-33,3	60,8
0,483	-29,4	53,2
0,4835	-27,3	51,3
0,484	-26,4	54,3
0,4845	-26,3	60,6
0,485	-27,0	68,7
0,4855	-27,7	75,9
0,486	-27,0	79,2
0,4865	-24,3	77,2
0,487	-20,1	72,0
0,4875	-15,7	66,6
0,488	-12,4	63,0
0,4885	-10,5	61,6
0,489	-10,5	63,1
0,4895	-12,7	69,0
0,49	-17,4	79,6
0,4905	-23,7	92,7
0,491	-29,5	103,3
0,4915	-33,1	108,4
0,492	-34,3	107,8
0,4925	-33,7	103,0
0,493	-32,1	95,4
0,4935	-30,5	86,2
0,494	-30,3	78,8
0,4945	-33,1	76,8
0,495	-38,5	80,4
0,4955	-44,9	86,7
0,496	-50,2	91,8
0,4965	-53,5	94,7
0,497	-54,8	95,3
0,4975	-53,8	92,8
0,498	-50,8	85,9
0,4985	-46,1	74,9
0,499	-40,8	62,9
0,4995	-36,5	54,4
0,5	-34,5	51,5
0,5005	-35,2	53,8
0,501	-38,0	59,5
0,5015	-42,0	67,6
0,502	-45,7	75,9
0,5025	-47,2	80,9
0,503	-45,6	79,6
0,5035	-41,5	73,3
0,504	-36,8	65,7
0,5045	-33,2	60,1
0,505	-31,1	57,3
0,5055	-30,5	57,3
0,506	-31,7	60,9
0,5065	-34,7	68,9
0,507	-38,9	80,4
0,5075	-42,8	91,8
0,508	-44,7	99,3
0,5085	-44,0	101,4
0,509	-40,9	99,2
0,5095	-36,3	94,1
0,51	-31,1	87,1
0,5105	-26,6	80,8
0,511	-24,7	78,9
0,5115	-26,0	82,5
0,512	-29,6	89,3
0,5125	-33,6	95,8
0,513	-36,8	99,8
0,5135	-39,2	101,7
0,514	-40,2	100,3
0,5145	-39,5	94,2
0,515	-36,7	82,6
0,5155	-32,8	67,4
0,516	-29,5	53,6
0,5165	-28,2	45,0
0,517	-29,2	42,5
0,5175	-31,7	45,3
0,518	-34,6	52,0
0,5185	-37,4	61,5
0,519	-39,1	70,1
0,5195	-38,8	73,8
0,52	-36,6	71,6
0,5205	-33,5	66,2
0,521	-31,1	61,2
0,5215	-29,5	58,5
0,522	-28,8	58,8
0,5225	-29,0	62,8
0,523	-30,8	70,8
0,5235	-34,8	81,9
0,524	-40,0	92,6
0,5245	-44,9	98,6
0,525	-48,0	97,7
0,5255	-48,4	91,2
0,526	-46,5	81,9
0,5265	-42,4	71,7
0,527	-37,0	62,7
0,5275	-32,2	58,3
0,528	-29,5	61,1
0,5285	-28,9	69,5
0,529	-29,4	79,6
0,5295	-29,7	87,7
0,53	-29,5	92,7
0,5305	-29,0	94,1
0,531	-27,8	91,0
0,5315	-25,3	83,0
0,532	-21,3	71,7
0,5325	-17,0	61,0
0,533	-14,3	54,8
0,5335	-14,3	54,6
0,534	-17,2	59,4
0,5345	-22,3	67,5
0,535	-28,6	76,6
0,5355	-35,1	83,6
0,536	-39,9	84,9
0,5365	-42,2	79,6
0,537	-42,5	70,4
0,5375	-42,3	61,5
0,538	-42,1	55,7
0,5385	-42,1	53,5
0,539	-42,5	55,0
0,5395	-44,0	60,8
0,54	-47,0	70,8
0,5405	-51,0	83,0
0,541	-54,5	92,7
0,5415	-56,1	96,7
0,542	-55,3	94,6
0,5425	-52,6	88,3
0,543	-48,8	79,4
0,5435	-44,5	70,1
0,544	-40,9	63,7
0,5445	-39,0	63,6
0,545	-38,8	70,3
0,5455	-39,1	80,2
0,546	-38,8	88,9
0,5465	-37,7	94,3
0,547	-36,0	95,9
0,5475	-33,6	93,2
0,548	-29,8	85,9
0,5485	-24,5	74,8
0,549	-18,8	62,8
0,5495	-14,5	54,2
0,55	-12,5	51,3
0,5505	-12,9	53,4
0,551	-14,9	58,9
0,5515	-18,0	66,1
0,552	-21,4	73,2
0,5525	-23,7	77,0
0,553	-23,7	75,1
0,5535	-22,0	68,3
0,554	-20,3	60,3
0,5545	-19,6	54,3
0,555	-20,1	51,3
0,5555	-21,8	51,6
0,556	-25,0	55,6
0,5565	-30,0	63,7
0,557	-36,3	74,9
0,5575	-42,0	85,9
0,558	-45,2	93,3
0,5585	-45,5	95,4
0,559	-43,6	92,6
0,5595	-40,2	86,0
0,56	-36,1	77,1
0,5605	-32,3	68,5
0,561	-30,8	64,2
0,5615	-32,3	66,1
0,562	-35,6	72,3
0,5625	-38,5	79,8
0,563	-39,7	86,3
0,5635	-39,2	91,0
0,564	-37,2	92,5
0,5645	-33,7	88,8
0,565	-28,6	79,4
0,5655	-22,8	66,9
0,566	-17,6	56,1
0,5665	-14,5	51,1
0,567	-13,6	52,5
0,5675	-14,4	58,5
0,568	-16,3	67,1
0,5685	-19,1	76,4
0,569	-21,6	83,8
0,5695	-22,5	85,8
0,57	-21,8	81,9
0,5705	-20,7	74,8
0,571	-20,3	67,8
0,5715	-21,1	62,8
0,572	-23,0	59,8
0,5725	-26,3	59,8
0,573	-31,3	63,5
0,5735	-37,9	71,7
0,574	-44,4	82,0
0,5745	-48,9	90,4
0,575	-50,3	94,3
0,5755	-49,1	93,0
0,576	-46,0	87,6
0,5765	-41,7	79,5
0,577	-36,9	70,9
0,5775	-33,3	65,8
0,578	-32,5	66,9
0,5785	-34,5	72,8
0,579	-37,8	79,5
0,5795	-41,0	84,0
0,58	-43,3	85,6
0,5805	-44,2	84,6
0,581	-43,3	80,3
0,5815	-40,0	72,1
0,582	-34,8	61,1
0,5825	-29,4	50,9
0,583	-26,0	45,4
0,5835	-25,4	46,0
0,584	-27,3	51,5
0,5845	-30,9	60,1
0,585	-35,3	70,1
0,5855	-39,3	78,6
0,586	-41,0	81,8
0,5865	-39,6	78,5
0,587	-35,4	71,0
0,5875	-30,3	63,4
0,588	-25,8	58,5
0,5885	-22,9	56,5
0,589	-22,2	58,0
0,5895	-24,0	63,6
0,59	-28,0	73,5
0,5905	-33,3	85,5
0,591	-38,0	95,1
0,5915	-40,6	98,8
0,592	-40,6	96,5
0,5925	-38,3	90,0
0,593	-34,4	81,2
0,5935	-29,7	71,8
0,594	-26,0	64,7
0,5945	-24,8	63,0
0,595	-26,8	67,0
0,5955	-30,6	73,2
0,596	-34,5	78,0
0,5965	-37,4	80,2
0,597	-39,1	80,5
0,5975	-39,1	78,4
0,598	-36,8	72,8
0,5985	-32,3	63,3
0,599	-27,3	52,5
0,5995	-23,6	44,3
0,6	-22,4	41,1
0,6005	-23,5	42,7
0,601	-25,9	48,1
0,6015	-28,9	56,4
0,602	-31,9	66,0
0,6025	-33,5	73,2
0,603	-32,9	74,3
0,6035	-30,7	69,4
0,604	-28,1	61,5
0,6045	-26,4	54,6
0,605	-25,5	50,7
0,6055	-25,3	50,2
0,606	-26,1	53,9
0,6065	-28,6	61,9
0,607	-32,4	73,1
0,6075	-36,6	83,8
0,608	-39,3	89,9
0,6085	-39,7	90,3
0,609	-38,0	86,3
0,6095	-34,8	79,6
0,61	-31,0	71,3
0,6105	-27,8	63,2
0,611	-26,8	58,8
0,6115	-28,6	60,2
0,612	-32,3	65,7
0,6125	-36,0	71,7
0,613	-38,5	75,5
0,6135	-39,8	76,6
0,614	-39,7	74,8
0,6145	-37,7	69,4
0,615	-33,4	60,3
0,6155	-27,7	49,1
0,616	-22,5	39,9
0,6165	-19,3	35,6
0,617	-18,8	36,4
0,6175	-20,3	41,0
0,618	-23,0	47,9
0,6185	-26,3	55,8
0,619	-28,6	61,8
0,6195	-28,5	62,6
0,62	-25,7	57,5
0,6205	-21,0	49,5
0,621	-16,2	42,7
0,6215	-12,2	38,9
0,622	-9,6	38,3
0,6225	-8,7	41,6
0,623	-9,8	49,3
0,6235	-13,0	60,7
0,624	-17,3	72,6
0,6245	-21,0	81,3
0,625	-22,7	85,2
0,6255	-22,3	84,6
0,626	-20,3	80,8
0,6265	-17,3	74,5
0,627	-13,9	67,2
0,6275	-11,6	62,8
0,628	-11,5	64,9
0,6285	-13,4	72,7
0,629	-16,1	81,8
0,6295	-18,3	87,4
0,63	-19,8	88,4
0,6305	-20,5	85,5
0,631	-19,8	78,9
0,6315	-17,3	68,8
0,632	-13,0	56,2
0,6325	-8,3	44,3
0,633	-5,2	36,8
0,6335	-4,5	35,1
0,634	-5,9	38,3
0,6345	-8,6	44,8
0,635	-12,0	53,3
0,6355	-15,3	61,4
0,636	-17,2	65,4
0,6365	-16,6	63,7
0,637	-14,2	57,9
0,6375	-12,1	51,2
0,638	-12,3	46,1
0,6385	-14,9	42,9
0,639	-19,6	42,1
0,6395	-25,7	45,0
0,64	-32,7	52,7
0,6405	-40,2	63,8
0,641	-46,8	73,8
0,6415	-51,8	78,7
0,642	-54,3	77,4
0,6425	-54,2	71,1
0,643	-51,3	61,8
0,6435	-46,4	51,5
0,644	-40,9	43,1
0,6445	-37,3	40,2
0,645	-36,4	43,3
0,6455	-37,3	49,7
0,646	-38,2	55,3
0,6465	-38,2	58,6
0,647	-37,2	59,9
0,6475	-34,8	59,1
0,648	-30,7	54,8
0,6485	-24,8	46,6
0,649	-18,3	36,7
0,6495	-13,1	29,2
0,65	-10,3	26,8
0,6505	-10,0	29,8
0,651	-11,3	36,8
0,6515	-13,7	45,9
0,652	-16,5	55,1
0,6525	-18,5	60,9
0,653	-18,4	60,8
0,6535	-16,4	55,4
0,654	-13,7	48,1
0,6545	-11,6	42,3
0,655	-10,5	38,9
0,6555	-10,3	38,3
0,656	-11,3	41,4
0,6565	-14,1	49,0
0,657	-18,5	60,5
0,6575	-23,2	72,4
0,658	-26,4	80,5
0,6585	-27,4	82,8
0,659	-26,2	79,8
0,6595	-23,6	73,1
0,66	-20,0	64,0
0,6605	-16,2	55,2
0,661	-14,0	50,7
0,6615	-14,6	52,5
0,662	-17,7	59,0
0,6625	-21,5	66,1
0,663	-24,7	70,5
0,6635	-26,5	71,9
0,664	-26,8	70,5
0,6645	-24,7	65,9
0,665	-20,1	57,7
0,6655	-13,7	47,3
0,666	-7,7	38,6
0,6665	-4,2	34,9
0,667	-4,0	36,9
0,6675	-6,6	42,8
0,668	-11,3	50,7
0,6685	-17,1	58,8
0,669	-21,9	64,6
0,6695	-23,8	65,3
0,67	-22,3	60,6
0,6705	-18,8	52,9
0,671	-15,2	45,7
0,6715	-12,7	40,8
0,672	-11,6	38,2
0,6725	-12,1	38,9
0,673	-14,5	44,2
0,6735	-18,8	54,3
0,674	-24,1	66,5
0,6745	-28,7	76,2
0,675	-31,5	80,2
0,6755	-32,3	78,5
0,676	-31,2	72,7
0,6765	-28,4	64,4
0,677	-25,0	55,7
0,6775	-22,6	49,7
0,678	-22,6	49,3
0,6785	-24,7	53,9
0,679	-27,5	59,8
0,6795	-29,5	63,9
0,68	-30,3	65,8
0,6805	-29,9	65,6
0,681	-27,8	62,7
0,6815	-23,4	55,6
0,682	-17,2	44,8
0,6825	-10,6	34,3
0,683	-5,6	28,5
0,6835	-3,2	29,4
0,684	-2,9	35,8
0,6845	-4,1	45,5
0,685	-6,5	56,6
0,6855	-9,5	66,2
0,686	-11,9	70,4
0,6865	-12,6	67,4
0,687	-11,5	59,4
0,6875	-10,0	50,5
0,688	-9,5	43,7
0,6885	-10,5	39,5
0,689	-13,3	38,3
0,6895	-17,6	41,5
0,69	-23,3	49,5
0,6905	-29,5	61,1
0,691	-34,8	71,9
0,6915	-38,4	78,3
0,692	-39,5	79,3
0,6925	-38,3	76,1
0,693	-35,1	69,7
0,6935	-30,7	61,3
0,694	-26,7	53,6
0,6945	-25,3	50,6
0,695	-26,8	53,4
0,6955	-30,1	59,4
0,696	-33,6	64,5
0,6965	-35,9	66,9
0,697	-37,0	67,1
0,6975	-36,4	64,8
0,698	-34,0	59,0
0,6985	-29,8	49,2
0,699	-24,7	37,7
0,6995	-20,4	29,0
0,7	-17,7	26,5
0,7005	-16,7	30,3
0,701	-17,0	38,7
0,7015	-18,6	49,2
0,702	-21,3	59,2
0,7025	-23,6	65,2
0,703	-24,2	64,6
0,7035	-22,9	58,1
0,704	-20,7	49,4
0,7045	-18,4	42,0
0,705	-16,8	37,5
0,7055	-16,0	36,5
0,706	-16,5	40,0
0,7065	-18,6	48,2
0,707	-22,3	60,3
0,7075	-26,3	72,5
0,708	-29,1	80,6
0,7085	-29,9	82,5
0,709	-28,9	79,0
0,7095	-26,6	71,8
0,71	-23,5	62,5
0,7105	-20,3	53,9
0,711	-18,3	49,7
0,7115	-18,7	52,2
0,712	-21,0	59,3
0,7125	-23,6	67,1
0,713	-25,3	72,2
0,7135	-25,7	74,5
0,714	-24,5	73,9
0,7145	-21,4	69,8
0,715	-16,3	61,4
0,7155	-9,9	50,4
0,716	-4,2	40,7
0,7165	-0,8	36,0
0,717	0,2	36,9
0,7175	-0,5	42,0
0,718	-2,3	49,8
0,7185	-5,1	58,5
0,719	-8,0	65,1
0,7195	-9,2	65,5
0,72	-7,9	59,1
0,7205	-4,7	48,9
0,721	-1,0	39,6
0,7215	2,3	34,1
0,722	4,8	32,9
0,7225	5,5	36,3
0,723	3,4	44,3
0,7235	-1,9	55,7
0,724	-9,3	68,1
0,7245	-16,2	77,7
0,725	-20,3	82,3
0,7255	-21,3	81,8
0,726	-19,8	77,1
0,7265	-17,6	69,5
0,727	-16,0	60,6
0,7275	-16,2	54,0
0,728	-18,9	53,5
0,7285	-23,5	58,6
0,729	-28,4	65,9
0,7295	-32,2	71,2
0,73	-35,0	72,9
0,7305	-37,1	71,2
0,731	-38,1	65,5
0,7315	-37,2	55,6
0,732	-34,1	42,4
0,7325	-29,9	29,5
0,733	-26,6	20,9
0,7335	-24,9	18,6
0,734	-24,5	21,9
0,7345	-24,5	30,0
0,735	-24,4	41,8
0,7355	-24,0	54,4
0,736	-22,8	63,1
0,7365	-20,3	64,3
0,737	-16,9	59,1
0,7375	-13,5	51,3
0,738	-11,2	44,3
0,7385	-10,6	39,5
0,739	-12,0	38,1
0,7395	-15,3	41,7
0,74	-20,3	50,6
0,7405	-25,9	62,8
0,741	-30,7	73,8
0,7415	-33,0	79,6
0,742	-32,4	79,5
0,7425	-29,2	74,5
0,743	-24,3	66,4
0,7435	-18,8	56,7
0,744	-14,3	48,3
0,7445	-12,8	45,2
0,745	-14,4	48,6
0,7455	-18,0	55,7
0,746	-21,4	62,4
0,7465	-23,2	66,6
0,747	-23,3	68,1
0,7475	-21,7	66,7
0,748	-18,1	61,6
0,7485	-12,9	52,4
0,749	-7,6	41,2
0,7495	-4,0	32,3
0,75	-3,3	28,8
0,7505	-5,2	30,3
0,751	-9,1	35,3
0,7515	-14,3	41,9
0,752	-19,9	48,8
0,7525	-24,3	53,0
0,753	-25,5	52,1
0,7535	-22,8	46,8
0,754	-17,6	40,1
0,7545	-12,1	35,1
0,755	-7,6	32,7
0,7555	-4,6	32,8
0,756	-3,7	36,3
0,7565	-5,2	44,3
0,757	-9,0	56,2
0,7575	-13,8	69,1
0,758	-17,7	78,7
0,7585	-19,3	82,9
0,759	-18,6	81,6
0,7595	-16,6	75,7
0,76	-14,5	66,0
0,7605	-13,1	54,8
0,761	-13,8	46,8
0,7615	-17,1	45,1
0,762	-22,1	48,8
0,7625	-27,1	54,5
0,763	-30,4	59,1
0,7635	-32,0	62,3
0,764	-32,1	63,5
0,7645	-30,7	61,3
0,765	-27,5	54,6
0,7655	-22,8	44,4
0,766	-17,9	34,8
0,7665	-14,4	29,7
0,767	-13,3	29,9
0,7675	-14,8	34,4
0,768	-18,4	41,2
0,7685	-23,5	48,9
0,769	-28,3	55,4
0,7695	-30,4	57,3
0,77	-29,1	53,7
0,7705	-25,5	46,6
0,771	-21,3	39,6
0,7715	-17,8	34,6
0,772	-15,2	32,0
0,7725	-14,0	32,6
0,773	-14,5	37,8
0,7735	-17,0	48,3
0,774	-20,3	61,3
0,7745	-22,8	72,0
0,775	-23,4	76,8
0,7755	-22,1	74,9
0,776	-19,4	68,1
0,7765	-16,0	58,4
0,777	-12,5	48,4
0,7775	-9,9	41,8
0,778	-9,8	41,7
0,7785	-12,3	48,0
0,779	-16,0	57,1
0,7795	-19,5	64,6
0,78	-22,2	68,5
0,7805	-24,3	68,4
0,781	-25,3	64,1
0,7815	-24,2	55,5
0,782	-21,2	43,4
0,7825	-17,5	31,3
0,783	-15,1	23,2
0,7835	-14,7	21,1
0,784	-16,0	24,6
0,7845	-18,3	31,8
0,785	-21,4	41,2
0,7855	-24,4	50,1
0,786	-25,8	55,0
0,7865	-24,3	53,5
0,787	-20,0	47,3
0,7875	-14,3	40,3
0,788	-8,8	35,4
0,7885	-4,0	33,3
0,789	-0,3	34,1
0,7895	1,3	38,7
0,79	0,3	47,8
0,7905	-2,8	59,8
0,791	-6,3	70,7
0,7915	-8,2	76,6
0,792	-7,7	76,8
0,7925	-5,3	72,5
0,793	-2,1	65,5
0,7935	1,0	57,0
0,794	2,6	49,5
0,7945	1,4	46,2
0,795	-3,1	48,3
0,7955	-9,6	54,1
0,796	-16,1	60,1
0,7965	-21,2	64,3
0,797	-24,7	66,4
0,7975	-26,8	65,6
0,798	-27,1	60,5
0,7985	-25,2	50,9
0,799	-21,8	39,2
0,7995	-18,6	29,3
0,8	-17,5	24,0
0,8005	-18,8	23,8
0,801	-21,8	27,3
0,8015	-25,4	33,8
0,802	-28,8	41,9
0,8025	-30,8	47,8
0,803	-30,3	48,0
0,8035	-27,1	42,6
0,804	-22,5	35,0
0,8045	-18,0	28,9
0,805	-14,5	25,5
0,8055	-12,4	24,8
0,806	-12,0	27,8
0,8065	-13,5	35,4
0,807	-16,8	47,5
0,8075	-20,4	60,7
0,808	-22,8	70,3
0,8085	-23,3	73,8
0,809	-22,3	71,7
0,8095	-20,5	65,3
0,81	-18,3	56,1
0,8105	-16,4	46,7
0,811	-15,9	41,1
0,8115	-17,9	41,9
0,812	-22,1	47,8
0,8125	-27,1	55,2
0,813	-31,4	60,6
0,8135	-34,1	63,2
0,814	-34,6	62,6
0,8145	-32,5	57,9
0,815	-27,9	48,8
0,8155	-21,6	37,1
0,816	-15,4	27,2
0,8165	-11,4	22,8
0,817	-10,7	24,8
0,8175	-13,1	31,0
0,818	-17,5	39,3
0,8185	-22,2	48,1
0,819	-25,5	55,0
0,8195	-25,5	56,9
0,82	-22,0	52,9
0,8205	-16,6	45,5
0,821	-11,2	38,7
0,8215	-7,2	34,7
0,822	-4,8	33,3
0,8225	-4,1	34,8
0,823	-5,3	40,4
0,8235	-8,8	50,1
0,824	-13,7	61,8
0,8245	-18,3	71,0
0,825	-20,9	74,6
0,8255	-20,9	72,3
0,826	-18,9	66,0
0,8265	-15,6	57,8
0,827	-11,9	49,8
0,8275	-9,4	44,8
0,828	-9,7	45,5
0,8285	-13,2	51,0
0,829	-18,7	57,9
0,8295	-24,5	62,6
0,83	-29,5	63,7
0,8305	-32,9	62,0
0,831	-34,2	57,5
0,8315	-32,8	49,8
0,832	-28,6	39,4
0,8325	-22,8	29,1
0,833	-17,0	23,1
0,8335	-12,9	23,4
0,834	-11,2	28,8
0,8345	-12,0	37,2
0,835	-15,1	46,5
0,8355	-19,4	55,0
0,836	-22,6	59,3
0,8365	-23,0	57,7
0,837	-20,5	51,5
0,8375	-16,5	44,4
0,838	-12,5	39,6
0,8385	-9,3	37,5
0,839	-7,4	38,3
0,8395	-7,5	42,7
0,84	-9,9	51,0
0,8405	-14,1	62,1
0,841	-18,6	72,0
0,8415	-21,4	76,9
0,842	-21,7	75,5
0,8425	-20,0	69,1
0,843	-16,8	59,8
0,8435	-12,8	49,8
0,844	-9,1	41,9
0,8445	-7,1	39,5
0,845	-7,7	43,1
0,8455	-10,1	50,1
0,846	-12,9	56,9
0,8465	-15,1	61,3
0,847	-16,2	63,4
0,8475	-15,9	62,8
0,848	-13,5	58,4
0,8485	-8,8	50,2
0,849	-2,6	39,7
0,8495	2,8	31,1
0,85	5,5	27,2
0,8505	4,8	28,3
0,851	1,6	33,3
0,8515	-3,0	40,8
0,852	-7,9	48,9
0,8525	-11,8	54,6
0,853	-13,6	54,8
0,8535	-13,3	49,8
0,854	-12,0	43,1
0,8545	-10,7	38,2
0,855	-9,8	36,2
0,8555	-9,5	36,8
0,856	-10,5	40,7
0,8565	-14,0	48,5
0,857	-20,3	59,5
0,8575	-28,1	70,0
0,858	-34,9	75,7
0,8585	-39,0	75,3
0,859	-39,9	70,0
0,8595	-38,0	62,3
0,86	-34,2	54,0
0,8605	-29,7	47,3
0,861	-26,1	45,2
0,8615	-24,9	49,1
0,862	-26,0	57,1
0,8625	-28,0	65,7
0,863	-29,3	71,8
0,8635	-29,3	75,0
0,864	-27,9	75,2
0,8645	-25,0	71,3
0,865	-20,3	62,6
0,8655	-14,2	49,9
0,866	-8,0	37,1
0,8665	-3,5	28,6
0,867	-1,3	26,3
0,8675	-1,4	29,7
0,868	-3,3	36,7
0,8685	-6,5	45,4
0,869	-10,2	52,7
0,8695	-12,6	54,9
0,87	-12,4	51,2
0,8705	-10,2	44,2
0,871	-7,6	38,0
0,8715	-5,6	35,0
0,872	-4,2	35,2
0,8725	-3,2	38,9
0,873	-3,3	46,7
0,8735	-5,4	58,2
0,874	-9,2	71,3
0,8745	-13,0	81,7
0,875	-15,5	86,3
0,8755	-16,0	84,5
0,876	-14,8	77,4
0,8765	-12,8	66,4
0,877	-10,8	53,0
0,8775	-10,4	41,1
0,878	-13,2	34,9
0,8785	-19,0	35,4
0,879	-25,9	40,4
0,8795	-31,8	46,2
0,88	-35,4	51,2
0,8805	-36,6	54,8
0,881	-35,5	55,8
0,8815	-32,0	52,3
0,882	-26,5	44,1
0,8825	-20,4	33,6
0,883	-15,7	25,4
0,8835	-13,5	22,3
0,884	-13,6	24,5
0,8845	-15,0	30,5
0,885	-17,1	38,8
0,8855	-18,9	47,1
0,886	-19,2	51,7
0,8865	-17,1	50,3
0,887	-12,9	44,4
0,8875	-8,3	37,3
0,888	-4,8	31,4
0,8885	-3,0	27,4
0,889	-2,7	25,9
0,8895	-3,8	28,8
0,89	-6,3	37,0
0,8905	-10,0	49,5
0,891	-13,7	61,5
0,8915	-16,1	68,3
0,892	-16,8	68,4
0,8925	-15,7	62,9
0,893	-13,5	54,3
0,8935	-10,6	44,8
0,894	-8,1	37,4
0,8945	-8,0	35,5
0,895	-11,3	40,0
0,8955	-17,1	47,8
0,896	-23,4	54,7
0,8965	-28,5	58,4
0,897	-31,6	59,1
0,8975	-32,5	56,8
0,898	-30,9	51,1
0,8985	-26,5	41,7
0,899	-20,3	30,6
0,8995	-14,3	22,0
0,9	-10,7	18,4
0,9005	-10,3	19,7
0,901	-12,8	24,2
0,9015	-17,3	31,0
0,902	-22,5	39,1
0,9025	-26,7	45,6
0,903	-28,1	46,9
0,9035	-26,7	42,8
0,904	-23,8	36,0
0,9045	-20,9	30,2
0,905	-19,1	26,5
0,9055	-18,5	25,3
0,906	-19,3	27,5
0,9065	-21,7	34,1
0,907	-25,4	44,8
0,9075	-29,2	56,5
0,908	-31,3	64,9
0,9085	-30,8	67,7
0,909	-27,9	65,3
0,9095	-23,4	59,6
0,91	-18,3	51,8
0,9105	-13,5	43,9
0,911	-10,7	39,4
0,9115	-10,9	40,7
0,912	-13,4	46,6
0,9125	-16,8	53,6
0,913	-19,5	58,9
0,9135	-20,9	61,8
0,914	-20,8	61,8
0,9145	-18,8	58,0
0,915	-14,4	49,8
0,9155	-8,2	37,9
0,916	-1,9	26,5
0,9165	2,7	19,6
0,917	4,6	18,6
0,9175	3,9	22,4
0,918	1,3	29,4
0,9185	-2,6	38,3
0,919	-6,4	46,5
0,9195	-8,6	50,2
0,92	-8,1	47,9
0,9205	-5,8	41,7
0,921	-3,2	35,5
0,9215	-1,2	31,9
0,922	0,0	30,7
0,9225	-0,1	32,3
0,923	-2,2	37,3
0,9235	-6,8	46,7
0,924	-13,1	58,4
0,9245	-19,3	68,0
0,925	-23,7	71,9
0,9255	-25,1	69,4
0,926	-23,8	62,3
0,9265	-20,5	52,3
0,927	-16,8	41,8
0,9275	-14,3	34,4
0,928	-14,7	33,5
0,9285	-17,6	39,0
0,929	-21,5	47,3
0,9295	-24,6	54,5
0,93	-26,4	58,8
0,9305	-26,7	60,8
0,931	-25,3	60,0
0,9315	-21,9	55,2
0,932	-17,0	45,6
0,9325	-12,0	33,6
0,933	-8,8	23,4
0,9335	-8,0	18,0
0,934	-8,9	18,1
0,9345	-10,9	22,7
0,935	-13,6	30,8
0,9355	-16,7	39,6
0,936	-19,2	45,1
0,9365	-19,8	44,2
0,937	-18,7	38,0
0,9375	-17,2	30,2
0,938	-16,1	24,2
0,9385	-15,5	20,7
0,939	-15,2	20,1
0,9395	-15,4	23,4
0,94	-16,8	31,6
0,9405	-19,3	43,5
0,941	-21,6	54,9
0,9415	-22,4	61,6
0,942	-21,4	62,2
0,9425	-19,0	58,2
0,943	-15,4	51,6
0,9435	-11,2	44,0
0,944	-7,3	37,5
0,9445	-5,6	35,4
0,945	-6,8	38,8
0,9455	-9,9	45,4
0,946	-13,0	52,0
0,9465	-14,7	56,5
0,947	-14,8	59,2
0,9475	-13,5	59,5
0,948	-10,4	55,8
0,9485	-5,6	47,5
0,949	0,1	36,2
0,9495	4,7	25,7
0,95	6,8	19,5
0,9505	6,5	18,7
0,951	4,4	22,6
0,9515	1,0	29,9
0,952	-3,3	39,1
0,9525	-7,1	46,8
0,953	-9,0	49,3
0,9535	-8,6	45,7
0,954	-6,9	39,0
0,9545	-5,4	33,1
0,955	-5,0	30,1
0,9555	-5,8	30,0
0,956	-8,3	33,6
0,9565	-12,6	41,2
0,957	-19,2	52,1
0,9575	-26,7	62,8
0,958	-32,8	69,3
0,9585	-36,3	69,6
0,959	-36,8	64,6
0,9595	-35,1	55,8
0,96	-31,9	44,6
0,9605	-27,7	33,6
0,961	-24,2	26,8
0,9615	-22,8	27,1
0,962	-23,7	33,4
0,9625	-25,2	42,0
0,963	-26,0	49,1
0,9635	-25,6	53,5
0,964	-24,1	54,8
0,9645	-21,3	51,9
0,965	-16,6	44,3
0,9655	-10,2	33,0
0,966	-3,4	22,0
0,9665	2,0	15,4
0,967	5,3	14,9
0,9675	6,3	19,4
0,968	5,3	27,1
0,9685	2,6	36,3
0,969	-0,7	44,5
0,9695	-2,7	48,3
0,97	-2,0	45,8
0,9705	0,8	39,1
0,971	4,2	31,5
0,9715	6,4	25,8
0,972	6,7	22,6
0,9725	4,5	22,8
0,973	0,0	27,7
0,9735	-6,3	37,5
0,974	-12,6	50,2
0,9745	-17,0	61,2
0,975	-17,9	67,4
0,9755	-15,7	68,2
0,976	-11,2	64,6
0,9765	-5,9	57,6
0,977	-0,8	48,8
0,9775	2,5	41,6
0,978	2,3	39,7
0,9785	-1,7	43,4
0,979	-7,9	50,1
0,9795	-14,3	56,5
0,98	-19,4	60,9
0,9805	-22,7	62,9
0,981	-23,9	61,3
0,9815	-22,8	54,6
0,982	-19,6	42,7
0,9825	-15,3	28,4
0,983	-12,0	16,8
0,9835	-11,3	11,3
0,984	-13,4	12,0
0,9845	-18,0	17,2
0,985	-23,9	25,3
0,9855	-29,8	34,6
0,986	-33,0	41,5
0,9865	-31,8	43,6
0,987	-26,6	41,2
0,9875	-19,7	37,3
0,988	-13,8	34,5
0,9885	-10,1	33,4
0,989	-8,7	33,9
0,9895	-9,5	37,2
0,99	-12,3	44,4
0,9905	-16,5	54,8
0,991	-20,6	64,8
0,9915	-23,0	70,2
0,992	-23,2	69,2
0,9925	-21,3	62,7
0,993	-18,3	52,5
0,9935	-14,8	40,6
0,994	-11,8	30,1
0,9945	-10,7	25,6
0,995	-12,1	28,9
0,9955	-15,2	37,9
0,996	-18,3	47,9
0,9965	-20,4	55,1
0,997	-21,5	58,8
0,9975	-21,8	58,6
0,998	-20,5	53,6
0,9985	-17,2	43,8
0,999	-12,4	31,0
0,9995	-8,1	19,4
1	-6,0	12,8
1,0005	-6,7	11,9
1,001	-9,1	15,9
1,0015	-12,3	23,3
1,002	-15,1	32,8
1,0025	-16,7	41,2
1,003	-15,8	44,6
1,0035	-12,8	41,8
1,004	-9,0	35,0
1,0045	-5,8	28,0
1,005	-4,1	23,0
1,0055	-3,5	20,6
1,006	-4,4	21,8
1,0065	-6,9	27,6
1,007	-10,8	38,1
1,0075	-15,1	50,7
1,008	-17,9	60,8
1,0085	-18,3	65,4
1,009	-16,7	64,5
1,0095	-13,9	59,3
1,01	-10,6	51,4
1,0105	-7,8	42,7
1,011	-7,0	37,1
1,0115	-9,5	37,4
1,012	-14,9	42,9
1,0125	-21,4	49,8
1,013	-27,0	54,6
1,0135	-31,0	56,4
1,014	-33,3	55,2
1,0145	-33,4	50,5
1,015	-30,7	42,0
1,0155	-24,9	30,7
1,016	-17,7	20,3
1,0165	-11,4	14,3
1,017	-7,7	14,1
1,0175	-7,0	18,7
1,018	-8,8	26,7
1,0185	-12,2	36,7
1,019	-16,0	46,2
1,0195	-18,2	51,1
1,02	-17,6	49,3
1,0205	-14,7	42,5
1,021	-11,3	34,8
1,0215	-9,0	29,2
1,022	-8,2	26,2
1,0225	-9,0	26,3
1,023	-11,8	30,6
1,0235	-16,6	39,7
1,024	-22,7	51,5
1,0245	-28,1	61,5
1,025	-30,8	66,0
1,0255	-30,2	64,7
1,026	-26,8	59,3
1,0265	-21,5	51,9
1,027	-15,3	44,2
1,0275	-10,2	38,8
1,028	-8,2	38,4
1,0285	-9,8	43,1
1,029	-13,5	49,8
1,0295	-17,0	55,5
1,03	-18,7	58,8
1,0305	-18,4	60,1
1,031	-15,9	58,4
1,0315	-11,2	52,7
1,032	-4,5	42,7
1,0325	3,0	31,1
1,033	9,3	22,6
1,0335	12,9	19,7
1,034	13,2	22,5
1,0345	10,3	29,1
1,035	4,9	37,8
1,0355	-1,6	46,6
1,036	-6,7	51,9
1,0365	-8,6	51,1
1,037	-7,2	44,8
1,0375	-4,2	36,8
1,038	-1,6	31,0
1,0385	-0,3	28,5
1,039	-0,9	29,3
1,0395	-3,9	33,9
1,04	-9,5	42,6
1,0405	-17,2	54,4
1,041	-25,0	65,5
1,0415	-30,8	71,9
1,042	-33,8	72,3
1,0425	-34,2	67,8
1,043	-32,6	60,1
1,0435	-29,5	50,4
1,044	-26,2	41,1
1,0445	-24,3	36,1
1,045	-25,0	37,3
1,0455	-27,6	42,6
1,046	-30,3	48,3
1,0465	-31,7	51,7
1,047	-31,5	52,9
1,0475	-29,2	51,9
1,048	-24,7	47,8
1,0485	-18,0	40,1
1,049	-10,1	30,0
1,0495	-3,0	20,9
1,05	1,3	16,1
1,0505	2,2	16,5
1,051	0,8	21,3
1,0515	-1,8	29,3
1,052	-5,3	39,1
1,0525	-8,3	47,6
1,053	-9,9	51,1
1,0535	-9,3	48,4
1,054	-7,3	41,8
1,0545	-5,4	34,9
1,055	-4,5	29,9
1,0555	-4,5	27,1
1,056	-5,7	27,8
1,0565	-8,5	32,9
1,057	-13,0	42,2
1,0575	-18,3	52,7
1,058	-22,5	60,2
1,0585	-24,1	62,4
1,059	-22,9	59,8
1,0595	-19,7	54,1
1,06	-15,0	46,4
1,0605	-9,8	38,3
1,061	-5,8	32,8
1,0615	-4,5	33,1
1,062	-5,7	38,8
1,0625	-7,9	46,7
1,063	-9,4	53,5
1,0635	-9,6	58,1
1,064	-8,7	60,1
1,0645	-7,0	58,7
1,065	-4,6	52,8
1,0655	-1,7	43,0
1,066	0,8	32,7
1,0665	1,7	25,7
1,067	0,7	24,1
1,0675	-1,9	27,1
1,068	-5,5	33,5
1,0685	-9,7	42,3
1,069	-13,5	50,9
1,0695	-15,6	55,4
1,07	-15,4	53,1
1,0705	-13,6	45,3
1,071	-11,5	36,3
1,0715	-10,1	29,5
1,072	-9,6	26,0
1,0725	-10,3	26,3
1,073	-13,1	30,8
1,0735	-18,4	39,3
1,074	-25,3	50,2
1,0745	-31,2	59,5
1,075	-33,8	64,0
1,0755	-32,8	63,1
1,076	-29,3	57,6
1,0765	-25,0	48,6
1,077	-20,7	37,5
1,0775	-17,3	27,9
1,078	-16,0	24,2
1,0785	-16,7	27,9
1,079	-18,0	36,3
1,0795	-19,0	44,9
1,08	-19,7	51,0
1,0805	-20,3	53,9
1,081	-19,9	53,3
1,0815	-17,3	48,4
1,082	-12,0	39,4
1,0825	-5,5	28,8
1,083	-0,2	20,5
1,0835	2,2	17,5
1,084	1,4	19,9
1,0845	-1,6	26,1
1,085	-6,0	34,4
1,0855	-10,9	43,1
1,086	-14,8	49,2
1,0865	-16,7	49,9
1,087	-16,4	45,0
1,0875	-15,4	37,3
1,088	-15,1	29,8
1,0885	-15,8	24,2
1,089	-17,4	21,4
1,0895	-20,0	23,3
1,09	-23,6	31,0
1,0905	-27,7	43,5
1,091	-31,1	56,8
1,0915	-32,3	66,3
1,092	-31,3	69,6
1,0925	-28,9	67,1
1,093	-25,5	60,1
1,0935	-21,6	50,1
1,094	-17,7	40,0
1,0945	-15,2	34,2
1,095	-15,2	35,3
1,0955	-16,8	41,7
1,096	-18,7	49,4
1,0965	-19,8	55,3
1,097	-20,1	58,7
1,0975	-19,4	59,3
1,098	-17,0	56,1
1,0985	-12,4	48,4
1,099	-6,1	38,0
1,0995	-0,0	28,6
1,1	3,9	23,7
1,1005	4,9	23,8
1,101	3,3	27,7
1,1015	-0,3	34,2
1,102	-5,3	42,3
1,1025	-10,4	49,3
1,103	-13,8	51,3
1,1035	-14,5	46,9
1,104	-13,1	39,2
1,1045	-11,2	32,6
1,105	-9,7	29,3
1,1055	-9,0	29,2
1,106	-9,5	32,2
1,1065	-12,1	39,0
1,107	-16,8	49,5
1,1075	-22,5	61,4
1,108	-27,1	70,3
1,1085	-29,0	73,6
1,109	-27,8	71,4
1,1095	-24,4	65,0
1,11	-19,9	55,4
1,1105	-15,3	44,6
1,111	-12,1	36,4
1,1115	-11,3	35,2
1,112	-12,5	41,0
1,1125	-14,3	50,2
1,113	-15,3	58,3
1,1135	-15,5	63,1
1,114	-14,8	64,3
1,1145	-12,8	61,2
1,115	-8,8	53,4
1,1155	-2,7	42,2
1,116	4,2	31,3
1,1165	10,0	24,7
1,117	13,2	23,9
1,1175	13,5	27,4
1,118	11,1	32,9
1,1185	6,6	38,7
1,119	1,1	43,5
1,1195	-3,3	45,0
1,12	-4,8	41,5
1,1205	-4,1	34,7
1,121	-3,0	27,5
1,1215	-3,2	22,3
1,122	-4,8	19,4
1,1225	-7,5	19,5
1,123	-11,0	24,0
1,1235	-15,3	33,3
1,124	-19,9	45,6
1,1245	-23,9	56,7
1,125	-25,9	62,7
1,1255	-25,5	62,6
1,126	-23,0	57,9
1,1265	-19,0	50,1
1,127	-14,3	40,8
1,1275	-10,3	33,0
1,128	-9,0	30,3
1,1285	-10,7	33,7
1,129	-13,8	40,7
1,1295	-16,7	47,4
1,13	-18,1	51,7
1,1305	-18,3	53,7
1,131	-17,5	52,8
1,1315	-15,5	48,1
1,132	-12,0	39,3
1,1325	-7,8	28,8
1,133	-4,3	21,3
1,1335	-3,0	19,6
1,134	-4,5	23,2
1,1345	-8,4	30,0
1,135	-14,0	37,7
1,1355	-19,8	44,4
1,136	-24,1	47,6
1,1365	-25,2	44,8
1,137	-23,1	37,0
1,1375	-19,3	27,6
1,138	-15,2	20,6
1,1385	-11,8	17,4
1,139	-9,4	17,8
1,1395	-8,8	22,1
1,14	-10,4	30,7
1,1405	-14,0	43,1
1,141	-18,3	55,7
1,1415	-21,5	64,1
1,142	-22,7	66,3
1,1425	-21,5	62,9
1,143	-18,7	55,3
1,1435	-14,8	45,4
1,144	-11,1	36,0
1,1445	-9,4	31,6
1,145	-10,9	34,2
1,1455	-14,9	41,4
1,146	-19,7	48,8
1,1465	-23,7	53,0
1,147	-26,4	53,8
1,1475	-27,5	51,8
1,148	-26,6	46,5
1,1485	-23,2	37,6
1,149	-17,8	26,2
1,1495	-12,0	15,9
1,15	-7,8	10,5
1,1505	-5,9	10,7
1,151	-6,3	15,5
1,1515	-8,3	23,4
1,152	-10,6	33,1
1,1525	-12,0	41,9
1,153	-11,1	45,8
1,1535	-7,9	43,6
1,154	-4,0	37,1
1,1545	-1,2	30,2
1,155	-0,0	25,3
1,1555	0,1	23,3
1,156	-0,7	24,9
1,1565	-2,8	31,1
1,157	-6,7	41,8
1,1575	-11,6	54,6
1,158	-15,8	64,6
1,1585	-17,9	68,6
1,159	-17,7	66,3
1,1595	-15,7	59,5
1,16	-12,4	49,9
1,1605	-8,5	39,7
1,161	-5,6	32,2
1,1615	-5,5	30,5
1,162	-8,0	34,3
1,1625	-11,3	40,7
1,163	-13,4	46,3
1,1635	-13,4	50,2
1,164	-11,8	52,2
1,1645	-8,4	51,2
1,165	-3,4	46,1
1,1655	2,6	37,1
1,166	8,2	27,3
1,1665	11,5	21,0
1,167	11,9	19,8
1,1675	10,0	23,0
1,168	6,7	29,1
1,1685	2,7	37,2
1,169	-1,4	45,3
1,1695	-4,5	49,9
1,17	-5,4	48,5
1,1705	-4,4	42,3
1,171	-2,4	34,6
1,1715	-0,5	28,3
1,172	0,6	24,2
1,1725	0,6	22,8
1,173	-1,4	25,4
1,1735	-6,0	32,9
1,174	-13,3	44,1
1,1745	-21,9	54,8
1,175	-29,3	60,9
1,1755	-33,8	61,0
1,176	-35,0	55,9
1,1765	-33,4	47,6
1,177	-30,0	38,0
1,1775	-26,3	30,5
1,178	-24,2	28,8
1,1785	-24,5	33,2
1,179	-26,6	40,6
1,1795	-28,8	47,2
1,18	-29,8	51,4
1,1805	-29,3	53,9
1,181	-27,0	54,1
1,1815	-23,1	50,2
1,182	-17,4	41,5
1,1825	-10,9	30,3
1,183	-5,3	21,3
1,1835	-1,6	17,6
1,184	0,1	19,5
1,1845	0,2	25,3
1,185	-1,0	33,5
1,1855	-3,3	42,5
1,186	-5,5	48,8
1,1865	-6,0	49,3
1,187	-4,1	44,2
1,1875	-0,7	36,6
1,188	2,6	30,4
1,1885	5,1	27,3
1,189	6,4	27,5
1,1895	6,3	31,7
1,19	4,1	40,0
1,1905	-0,0	51,6
1,191	-5,0	62,9
1,1915	-9,3	69,9
1,192	-11,9	70,7
1,1925	-13,2	66,4
1,193	-13,5	58,9
1,1935	-12,9	49,8
1,194	-12,0	41,3
1,1945	-12,2	36,9
1,195	-14,7	38,4
1,1955	-19,0	44,1
1,196	-23,5	49,7
1,1965	-26,8	52,2
1,197	-28,9	51,3
1,1975	-30,0	47,5
1,198	-29,8	40,2
1,1985	-27,6	29,1
1,199	-23,3	15,8
1,1995	-18,3	4,9
1,2	-14,3	-0,0
1,2005	-12,5	1,8
1,201	-12,6	8,7
1,2015	-14,1	18,4
1,202	-16,3	29,3
1,2025	-17,9	38,8
1,203	-17,0	43,5
1,2035	-13,0	41,8
1,204	-6,8	36,2
1,2045	0,1	30,7
1,205	6,6	28,1
1,2055	12,4	28,7
1,206	16,4	32,5
1,2065	17,5	40,0
1,207	15,2	50,9
1,2075	10,4	62,9
1,208	5,1	71,7
1,2085	0,8	74,4
1,209	-1,7	71,2
1,2095	-2,7	63,5
1,21	-2,3	53,4
1,2105	-0,9	42,9
1,211	0,2	36,0
1,2115	-0,9	35,8
1,212	-4,6	41,8
1,2125	-9,8	49,9
1,213	-15,0	55,8
1,2135	-19,1	58,4
1,214	-22,1	58,3
1,2145	-23,4	55,0
1,215	-22,9	47,1
1,2155	-20,8	34,7
1,216	-18,4	21,0
1,2165	-17,0	10,8
1,217	-17,2	6,9
1,2175	-18,1	8,9
1,218	-19,1	15,5
1,2185	-19,8	25,2
1,219	-20,0	35,6
1,2195	-18,9	42,8
1,22	-15,6	43,7
1,2205	-10,4	39,4
1,221	-5,0	33,4
1,2215	-0,9	28,6
1,222	1,2	25,3
1,2225	0,7	23,6
1,223	-2,6	25,1
1,2235	-8,5	31,1
1,224	-16,2	41,4
1,2245	-23,6	51,9
1,225	-28,7	58,3
1,2255	-30,4	59,1
1,226	-28,8	55,5
1,2265	-24,8	49,6
1,227	-19,7	43,0
1,2275	-15,2	37,8
1,228	-13,3	37,3
1,2285	-14,2	42,5
1,229	-16,7	51,2
1,2295	-18,8	59,3
1,23	-19,8	64,3
1,2305	-19,6	66,1
1,231	-18,3	64,2
1,2315	-15,7	57,8
1,232	-11,4	47,0
1,2325	-6,2	34,4
1,233	-1,4	24,7
1,2335	1,7	21,0
1,234	2,8	23,3
1,2345	2,2	29,7
1,235	0,4	38,5
1,2355	-2,1	47,5
1,236	-4,4	53,3
1,2365	-5,5	52,4
1,237	-5,5	45,2
1,2375	-5,3	35,1
1,238	-5,7	26,3
1,2385	-6,8	20,5
1,239	-8,4	17,8
1,2395	-10,7	18,9
1,24	-14,3	24,7
1,2405	-19,2	34,8
1,241	-24,2	46,2
1,2415	-27,8	54,3
1,242	-28,6	56,8
1,2425	-26,6	54,2
1,243	-22,3	47,8
1,2435	-16,6	39,1
1,244	-10,7	30,0
1,2445	-6,7	24,8
1,245	-5,7	26,2
1,2455	-7,2	32,9
1,246	-9,3	41,1
1,2465	-10,4	47,5
1,247	-10,2	51,1
1,2475	-9,0	51,3
1,248	-6,3	47,1
1,2485	-2,2	37,8
1,249	3,1	25,1
1,2495	7,6	13,2
1,25	9,5	6,5
1,2505	8,2	6,6
1,251	4,6	12,1
1,2515	-0,3	21,5
1,252	-5,6	32,8
1,2525	-10,3	42,7
1,253	-13,2	46,9
1,2535	-13,7	43,9
1,254	-12,7	36,3
1,2545	-11,5	28,3
1,255	-11,0	22,9
1,2555	-11,4	20,1
1,256	-13,2	20,2
1,2565	-16,7	24,1
1,257	-21,9	32,5
1,2575	-27,6	43,8
1,258	-31,9	53,8
1,2585	-33,5	59,3
1,259	-32,2	59,6
1,2595	-28,5	55,9
1,26	-23,1	49,5
1,2605	-16,8	41,9
1,261	-11,1	36,0
1,2615	-7,8	35,3
1,262	-7,7	39,7
1,2625	-9,7	46,3
1,263	-12,2	51,6
1,2635	-14,2	54,3
1,264	-15,3	54,3
1,2645	-15,0	51,3
1,265	-12,8	44,1
1,2655	-9,0	33,2
1,266	-4,6	21,6
1,2665	-1,7	13,7
1,267	-1,1	11,8
1,2675	-2,4	15,0
1,268	-5,3	21,7
1,2685	-9,3	30,4
1,269	-14,0	39,0
1,2695	-17,9	43,6
1,27	-19,8	41,8
1,2705	-19,6	34,7
1,271	-18,3	26,1
1,2715	-17,0	19,5
1,272	-16,3	16,0
1,2725	-16,9	15,7
1,273	-19,5	19,0
1,2735	-24,0	26,3
1,274	-29,9	36,7
1,2745	-35,5	46,7
1,275	-38,8	52,8
1,2755	-39,4	53,7
1,276	-37,5	50,1
1,2765	-33,6	43,4
1,277	-28,3	35,0
1,2775	-22,9	27,6
1,278	-19,1	24,9
1,2785	-17,9	28,6
1,279	-17,9	36,6
1,2795	-17,4	45,4
1,28	-15,3	51,9
1,2805	-11,9	55,8
1,281	-7,8	56,0
1,2815	-2,8	51,7
1,282	3,2	42,4
1,2825	9,3	30,3
1,283	14,0	19,9
1,2835	16,1	14,9
1,284	15,7	15,9
1,2845	13,4	21,3
1,285	10,2	29,5
1,2855	6,7	38,5
1,286	4,1	45,2
1,2865	3,6	46,4
1,287	4,9	42,2
1,2875	6,4	35,3
1,288	6,7	29,4
1,2885	5,1	25,5
1,289	2,3	23,6
1,2895	-1,5	24,4
1,29	-6,5	29,2
1,2905	-12,5	38,0
1,291	-18,6	48,1
1,2915	-23,2	55,3
1,292	-25,3	56,9
1,2925	-25,0	52,9
1,293	-23,0	45,5
1,2935	-20,2	36,4
1,294	-17,1	28,1
1,2945	-15,4	24,3
1,295	-16,1	26,9
1,2955	-19,2	34,5
1,296	-22,8	43,1
1,2965	-25,5	49,4
1,297	-26,8	52,5
1,2975	-26,9	52,3
1,298	-25,7	47,8
1,2985	-22,5	39,2
1,299	-17,2	28,1
1,2995	-11,4	18,5
1,3	-7,3	13,7
1,3005	-5,9	14,0
1,301	-6,9	18,2
1,3015	-9,5	24,8
1,302	-12,5	32,7
1,3025	-14,8	39,8
1,303	-14,8	43,1
1,3035	-11,8	41,7
1,304	-6,8	37,2
1,3045	-1,8	32,3
1,305	1,5	28,2
1,3055	2,9	24,9
1,306	2,3	23,9
1,3065	0,1	27,3
1,307	-3,6	36,1
1,3075	-8,0	48,1
1,308	-11,5	58,5
1,3085	-13,2	62,9
1,309	-12,8	60,6
1,3095	-10,9	53,3
1,31	-7,8	43,3
1,3105	-4,2	32,8
1,311	-1,1	25,6
1,3115	-0,2	24,7
1,312	-2,1	29,9
1,3125	-5,7	37,7
1,313	-9,6	44,1
1,3135	-12,6	48,0
1,314	-14,5	49,4
1,3145	-14,9	47,6
1,315	-13,5	41,1
1,3155	-10,3	29,7
1,316	-6,2	17,0
1,3165	-3,0	8,1
1,317	-1,7	6,3
1,3175	-2,2	11,8
1,318	-3,8	22,0
1,3185	-6,3	34,3
1,319	-9,3	45,2
1,3195	-11,6	50,7
1,32	-12,3	48,6
1,3205	-11,6	40,4
1,321	-10,4	30,6
1,3215	-9,3	22,5
1,322	-8,4	17,6
1,3225	-7,9	16,2
1,323	-8,5	19,3
1,3235	-11,0	27,2
1,324	-15,3	38,3
1,3245	-19,5	48,8
1,325	-21,8	55,1
1,3255	-21,2	55,8
1,326	-18,3	51,8
1,3265	-13,8	44,8
1,327	-8,1	36,2
1,3275	-2,3	28,4
1,328	1,4	25,1
1,3285	1,5	27,9
1,329	-1,2	34,9
1,3295	-4,9	42,5
1,33	-7,8	47,8
1,3305	-9,3	50,3
1,331	-9,3	49,8
1,3315	-7,8	45,4
1,332	-4,7	36,8
1,3325	-0,8	26,0
1,333	2,5	17,0
1,3335	3,4	12,7
1,334	1,6	13,1
1,3345	-2,3	16,5
1,335	-7,5	22,2
1,3355	-12,9	29,2
1,336	-16,6	35,2
1,3365	-16,8	37,0
1,337	-13,5	34,1
1,3375	-8,5	28,5
1,338	-3,9	23,3
1,3385	-0,9	20,0
1,339	0,5	18,8
1,3395	0,3	20,8
1,34	-1,9	26,7
1,3405	-6,1	36,1
1,341	-11,2	46,1
1,3415	-15,1	52,8
1,342	-16,6	54,5
1,3425	-15,3	52,2
1,343	-11,7	47,6
1,3435	-6,5	42,0
1,344	-0,9	36,5
1,3445	3,0	33,6
1,345	3,5	35,3
1,3455	0,3	40,2
1,346	-5,1	44,6
1,3465	-11,3	45,8
1,347	-16,9	44,2
1,3475	-20,6	40,7
1,348	-21,4	35,1
1,3485	-18,8	26,3
1,349	-13,6	14,9
1,3495	-7,7	4,3
1,35	-3,1	-1,4
1,3505	-1,0	-0,8
1,351	-1,6	4,6
1,3515	-4,0	12,9
1,352	-7,4	22,5
1,3525	-10,6	31,0
1,353	-12,3	34,6
1,3535	-12,0	31,8
1,354	-10,3	24,8
1,3545	-8,6	17,4
1,355	-7,6	11,9
1,3555	-7,2	8,9
1,356	-7,1	9,2
1,3565	-7,8	14,3
1,357	-9,9	24,1
1,3575	-13,3	36,3
1,358	-16,3	46,3
1,3585	-17,5	51,2
1,359	-16,7	50,5
1,3595	-14,5	45,8
1,36	-11,6	38,4
1,3605	-8,6	30,4
1,361	-6,6	24,6
1,3615	-6,7	23,8
1,362	-9,0	28,2
1,3625	-12,1	34,6
1,363	-14,3	40,1
1,3635	-14,7	43,2
1,364	-13,7	43,9
1,3645	-11,3	41,1
1,365	-7,0	34,0
1,3655	-1,3	23,1
1,366	4,7	11,7
1,3665	8,9	4,0
1,367	10,1	2,2
1,3675	8,4	5,6
1,368	4,6	12,3
1,3685	-0,7	20,8
1,369	-6,4	29,4
1,3695	-10,8	34,4
1,37	-12,4	33,4
1,3705	-11,3	27,7
1,371	-9,0	20,7
1,3715	-6,8	15,5
1,372	-5,4	12,8
1,3725	-5,0	12,9
1,373	-6,2	17,2
1,3735	-9,5	26,3
1,374	-14,6	38,5
1,3745	-20,3	49,6
1,375	-24,7	54,9
1,3755	-26,8	53,4
1,376	-26,3	46,6
1,3765	-23,7	37,2
1,377	-19,6	27,3
1,3775	-15,2	19,6
1,378	-12,6	17,3
1,3785	-12,8	21,7
1,379	-14,8	30,0
1,3795	-17,2	38,2
1,38	-18,7	43,2
1,3805	-19,2	45,0
1,381	-18,8	43,3
1,3815	-17,1	37,3
1,382	-13,8	26,9
1,3825	-9,2	14,0
1,383	-4,9	2,9
1,3835	-2,5	-2,7
1,384	-2,3	-2,1
1,3845	-3,8	3,3
1,385	-6,9	11,2
1,3855	-11,1	19,8
1,386	-15,0	25,9
1,3865	-16,7	26,4
1,387	-15,4	21,3
1,3875	-11,9	13,7
1,388	-7,6	7,6
1,3885	-3,5	4,7
1,389	-0,3	4,5
1,3895	1,1	7,3
1,39	-0,1	13,9
1,3905	-3,8	24,2
1,391	-8,4	35,8
1,3915	-11,8	44,5
1,392	-12,6	47,7
1,3925	-10,8	45,2
1,393	-7,1	39,0
1,3935	-2,3	31,0
1,394	2,7	23,6
1,3945	6,6	20,2
1,395	7,9	23,1
1,3955	6,7	30,8
1,396	4,1	39,3
1,3965	1,5	45,2
1,397	-0,7	47,4
1,3975	-2,2	46,5
1,398	-2,5	41,6
1,3985	-1,0	32,0
1,399	1,7	18,5
1,3995	3,9	4,9
1,4	4,0	-4,1
1,4005	1,5	-6,5
1,401	-2,5	-2,9
1,4015	-6,9	4,8
1,402	-10,9	14,9
1,4025	-13,8	24,5
1,403	-14,5	29,6
1,4035	-12,5	28,5
1,404	-8,6	23,3
1,4045	-4,3	17,3
1,405	-1,0	13,3
1,4055	1,1	11,3
1,406	1,5	12,3
1,4065	-0,2	17,3
1,407	-4,1	26,4
1,4075	-9,5	37,7
1,408	-14,3	46,6
1,4085	-16,8	50,2
1,409	-16,3	48,3
1,4095	-13,0	42,7
1,41	-8,3	34,8
1,4105	-3,2	26,1
1,411	0,6	19,4
1,4115	1,8	18,2
1,412	0,2	22,9
1,4125	-3,1	30,8
1,413	-6,2	37,7
1,4135	-8,1	41,8
1,414	-8,7	43,1
1,4145	-7,8	40,9
1,415	-5,0	34,4
1,4155	-0,3	24,0
1,416	5,4	12,8
1,4165	9,8	5,3
1,417	11,0	3,1
1,4175	9,0	5,5
1,418	4,4	10,4
1,4185	-1,5	16,6
1,419	-7,3	22,6
1,4195	-10,8	25,7
1,42	-10,9	24,0
1,4205	-8,2	18,6
1,421	-4,8	12,2
1,4215	-2,6	7,6
1,422	-1,9	5,3
1,4225	-2,3	5,7
1,423	-4,2	10,0
1,4235	-7,9	18,9
1,424	-13,3	31,2
1,4245	-19,0	43,1
1,425	-23,2	50,2
1,4255	-25,2	51,0
1,426	-25,1	46,2
1,4265	-23,4	37,9
1,427	-20,4	27,9
1,4275	-17,0	19,2
1,428	-15,0	15,8
1,4285	-15,3	19,4
1,429	-17,5	27,7
1,4295	-19,9	36,6
1,43	-21,8	43,0
1,4305	-23,0	46,4
1,431	-23,5	46,3
1,4315	-22,8	41,6
1,432	-20,3	31,8
1,4325	-16,2	19,2
1,433	-11,9	8,3
1,4335	-9,2	2,9
1,434	-8,4	3,6
1,4345	-9,3	8,6
1,435	-11,3	16,3
1,4355	-13,7	24,9
1,436	-15,0	31,6
1,4365	-13,5	33,4
1,437	-8,8	29,8
1,4375	-2,3	23,5
1,438	3,8	17,8
1,4385	8,4	14,3
1,439	10,9	13,1
1,4395	11,1	14,8
1,44	9,1	20,4
1,4405	5,1	30,0
1,441	0,6	41,1
1,4415	-2,8	49,7
1,442	-3,7	53,6
1,4425	-2,2	53,1
1,443	1,0	49,5
1,4435	5,0	43,7
1,444	8,2	36,6
1,4445	8,4	31,3
1,445	4,2	30,4
1,4455	-3,5	34,1
1,446	-12,3	39,6
1,4465	-19,8	43,8
1,447	-25,2	45,4
1,4475	-28,1	44,2
1,448	-28,2	39,0
1,4485	-25,1	29,3
1,449	-19,4	15,8
1,4495	-13,0	2,5
1,45	-7,9	-6,0
1,4505	-5,5	-7,9
1,451	-5,8	-4,4
1,4515	-8,4	2,3
1,452	-12,4	10,8
1,4525	-16,3	19,0
1,453	-18,3	23,7
1,4535	-17,2	22,9
1,454	-14,2	17,9
1,4545	-10,7	11,6
1,455	-8,2	6,7
1,4555	-6,8	3,6
1,456	-6,7	3,5
1,4565	-8,3	7,8
1,457	-11,8	16,8
1,4575	-16,8	28,7
1,458	-22,1	38,8
1,4585	-25,7	43,7
1,459	-26,9	42,8
1,4595	-25,9	37,9
1,46	-23,0	30,6
1,4605	-18,7	22,5
1,461	-14,3	16,6
1,4615	-11,6	16,1
1,462	-11,0	21,5
1,4625	-11,8	29,7
1,463	-12,4	36,9
1,4635	-11,9	41,4
1,464	-10,2	43,5
1,4645	-7,3	42,5
1,465	-3,6	37,1
1,4655	0,5	26,6
1,466	4,1	13,6
1,4665	5,9	3,2
1,467	5,6	-1,6
1,4675	3,6	-0,4
1,468	0,7	4,9
1,4685	-2,7	12,8
1,469	-6,5	21,3
1,4695	-9,5	26,6
1,47	-10,4	25,9
1,4705	-9,1	20,2
1,471	-6,7	13,0
1,4715	-4,3	8,0
1,472	-2,4	6,1
1,4725	-1,1	7,3
1,473	-0,8	12,3
1,4735	-2,2	21,3
1,474	-5,2	33,2
1,4745	-8,7	44,2
1,475	-11,0	50,5
1,4755	-11,0	50,6
1,476	-9,3	45,5
1,4765	-6,3	37,2
1,477	-2,9	27,5
1,4775	-0,1	19,0
1,478	0,9	15,3
1,4785	-0,7	17,8
1,479	-4,3	24,4
1,4795	-8,2	30,9
1,48	-10,8	34,9
1,4805	-12,0	36,1
1,481	-12,1	34,3
1,4815	-10,7	28,7
1,482	-7,3	18,9
1,4825	-2,3	6,8
1,483	2,7	-3,9
1,4835	5,8	-9,8
1,484	6,4	-10,3
1,4845	4,8	-6,3
1,485	1,7	0,7
1,4855	-2,3	9,3
1,486	-5,9	16,8
1,4865	-7,8	19,1
1,487	-7,3	15,7
1,4875	-5,1	9,3
1,488	-2,6	4,0
1,4885	-0,7	1,8
1,489	0,6	2,8
1,4895	0,4	7,8
1,49	-2,0	17,3
1,4905	-6,8	30,5
1,491	-12,6	43,7
1,4915	-17,4	51,9
1,492	-19,9	52,5
1,4925	-20,1	46,5
1,493	-18,2	36,8
1,4935	-14,7	25,6
1,494	-10,6	15,4
1,4945	-7,5	9,5
1,495	-6,8	10,3
1,4955	-8,3	16,8
1,496	-11,0	24,9
1,4965	-13,3	31,2
1,497	-14,5	34,3
1,4975	-14,5	34,5
1,498	-12,8	31,3
1,4985	-9,1	24,2
1,499	-3,7	13,9
1,4995	1,8	3,8
1,5	5,4	-2,3
1,5005	6,2	-2,9
1,501	4,3	0,9
1,5015	0,3	7,5
1,502	-5,0	15,2
1,5025	-10,2	21,9
1,503	-13,4	24,3
1,5035	-13,6	21,1
1,504	-11,6	14,3
1,5045	-8,7	8,0
1,505	-6,2	4,7
1,5055	-4,3	4,9
1,506	-3,5	8,4
1,5065	-4,2	15,8
1,507	-6,8	27,0
1,5075	-11,1	39,5
1,508	-15,6	49,0
1,5085	-18,6	52,1
1,509	-19,5	48,9
1,5095	-18,0	41,7
1,51	-14,4	32,6
1,5105	-9,4	23,5
1,511	-4,7	16,9
1,5115	-2,6	16,0
1,512	-3,5	20,7
1,5125	-6,4	28,2
1,513	-9,7	34,8
1,5135	-12,3	38,6
1,514	-14,0	39,2
1,5145	-14,1	36,0
1,515	-12,1	28,0
1,5155	-7,5	15,8
1,516	-1,5	2,8
1,5165	3,8	-6,5
1,517	6,5	-9,7
1,5175	5,8	-7,4
1,518	2,2	-1,7
1,5185	-3,4	5,8
1,519	-9,6	13,4
1,5195	-14,5	18,2
1,52	-16,6	17,7
1,5205	-15,5	12,9
1,521	-12,6	7,0
1,5215	-9,7	2,9
1,522	-7,8	1,1
1,5225	-7,0	1,3
1,523	-7,6	5,0
1,5235	-9,8	12,9
1,524	-13,0	24,6
1,5245	-15,9	36,3
1,525	-17,2	43,6
1,5255	-16,1	44,4
1,526	-13,4	39,3
1,5265	-9,7	30,1
1,527	-5,5	19,0
1,5275	-1,3	9,5
1,528	1,8	5,8
1,5285	2,4	9,8
1,529	1,1	19,2
1,5295	-0,9	29,3
1,53	-2,6	36,1
1,5305	-3,7	38,4
1,531	-4,2	36,3
1,5315	-3,5	29,6
1,532	-1,0	18,8
1,5325	3,0	6,1
1,533	6,9	-4,8
1,5335	8,9	-10,6
1,534	8,1	-10,6
1,5345	4,8	-6,1
1,535	-0,0	1,3
1,5355	-5,3	10,0
1,536	-9,4	17,2
1,5365	-10,6	19,3
1,537	-8,7	15,8
1,5375	-4,9	9,3
1,538	-1,3	3,6
1,5385	1,2	0,5
1,539	1,9	0,3
1,5395	0,6	3,6
1,54	-3,6	10,9
1,5405	-10,2	21,8
1,541	-17,8	33,2
1,5415	-23,8	40,6
1,542	-26,7	41,9
1,5425	-26,2	37,8
1,543	-23,1	30,2
1,5435	-18,7	20,6
1,544	-14,0	10,6
1,5445	-10,8	4,1
1,545	-10,2	4,5
1,5455	-12,1	11,1
1,546	-15,0	20,0
1,5465	-17,2	26,9
1,547	-17,7	30,7
1,5475	-16,3	31,6
1,548	-12,9	28,9
1,5485	-7,8	21,8
1,549	-1,3	11,0
1,5495	5,2	0,0
1,55	10,2	-6,8
1,5505	13,1	-7,8
1,551	13,8	-3,9
1,5515	12,7	3,0
1,552	10,0	11,3
1,5525	6,7	18,7
1,553	4,1	21,8
1,5535	3,6	18,5
1,554	5,1	10,9
1,5545	7,3	2,8
1,555	9,4	-2,4
1,5555	10,8	-4,1
1,556	11,1	-1,8
1,5565	10,0	5,1
1,557	6,9	16,6
1,5575	2,4	30,7
1,558	-1,8	42,8
1,5585	-4,3	49,4
1,559	-4,8	49,8
1,5595	-3,8	44,9
1,56	-2,0	36,4
1,5605	0,1	26,1
1,561	1,6	17,4
1,5615	1,0	14,4
1,562	-2,3	17,5
1,5625	-7,3	23,9
1,563	-12,2	29,7
1,5635	-15,7	32,9
1,564	-17,4	33,7
1,5645	-16,9	31,3
1,565	-14,3	25,1
1,5655	-9,7	14,8
1,566	-3,9	2,6
1,5665	1,2	-7,5
1,567	3,9	-12,8
1,5675	3,4	-12,7
1,568	0,3	-8,4
1,5685	-4,3	-1,2
1,569	-8,8	7,3
1,5695	-11,6	13,3
1,57	-11,4	13,8
1,5705	-8,6	8,9
1,571	-4,9	1,3
1,5715	-2,1	-5,3
1,572	-0,8	-9,4
1,5725	-1,0	-10,5
1,573	-2,9	-7,6
1,5735	-6,8	-0,2
1,574	-12,1	10,9
1,5745	-17,4	22,2
1,575	-20,9	29,9
1,5755	-21,3	32,5
1,576	-18,8	30,8
1,5765	-14,3	26,1
1,577	-9,0	19,2
1,5775	-4,5	11,7
1,578	-2,8	7,3
1,5785	-4,5	8,5
1,579	-8,3	14,7
1,5795	-12,4	22,3
1,58	-15,8	28,0
1,5805	-18,4	30,5
1,581	-19,9	29,3
1,5815	-19,4	23,8
1,582	-16,1	13,9
1,5825	-10,8	1,7
1,583	-5,4	-8,5
1,5835	-2,0	-13,6
1,584	-1,3	-13,2
1,5845	-2,8	-9,0
1,585	-6,2	-2,5
1,5855	-10,4	5,3
1,586	-13,9	11,9
1,5865	-14,9	14,1
1,587	-12,7	10,8
1,5875	-8,1	4,4
1,588	-2,9	-1,2
1,5885	1,7	-4,0
1,589	5,7	-3,9
1,5895	8,3	-0,5
1,59	8,8	6,7
1,5905	6,8	17,3
1,591	3,1	28,8
1,5915	-0,6	37,0
1,592	-2,6	39,3
1,5925	-2,4	36,1
1,593	-0,2	29,3
1,5935	3,5	20,4
1,594	8,0	11,5
1,5945	11,3	6,1
1,595	11,7	6,8
1,5955	8,8	12,6
1,596	3,9	19,8
1,5965	-1,1	24,9
1,597	-5,2	27,3
1,5975	-8,2	27,5
1,598	-9,6	24,8
1,5985	-8,7	18,7
1,599	-5,2	9,8
1,5995	-0,3	1,3
1,6	3,5	-3,7
1,6005	4,7	-3,9
1,601	3,0	-0,3
1,6015	-0,7	5,5
1,602	-5,5	12,3
1,6025	-9,8	18,4
1,603	-11,8	21,0
1,6035	-10,4	18,2
1,604	-6,4	11,6
1,6045	-1,5	4,7
1,605	2,9	0,0
1,6055	6,0	-2,0
1,606	7,3	-1,3
1,6065	6,3	2,8
1,607	2,9	10,7
1,6075	-2,0	20,8
1,608	-6,4	29,3
1,6085	-8,7	33,4
1,609	-8,1	32,3
1,6095	-4,9	27,4
1,61	0,0	20,1
1,6105	6,1	12,2
1,611	11,9	6,6
1,6115	15,4	6,4
1,612	15,7	12,2
1,6125	13,5	20,8
1,613	10,1	28,2
1,6135	6,8	32,4
1,614	4,2	33,6
1,6145	3,1	31,6
1,615	4,5	25,7
1,6155	8,2	15,7
1,616	12,8	3,7
1,6165	16,2	-6,4
1,617	16,9	-11,7
1,6175	15,0	-11,5
1,618	10,9	-6,8
1,6185	5,0	0,8
1,619	-1,8	9,4
1,6195	-7,4	15,7
1,62	-10,3	16,3
1,6205	-10,1	11,2
1,621	-8,1	3,2
1,6215	-5,9	-4,1
1,622	-4,5	-9,0
1,6225	-4,0	-10,9
1,623	-5,1	-9,0
1,6235	-8,1	-2,4
1,624	-12,9	8,2
1,6245	-18,1	19,5
1,625	-21,6	27,2
1,6255	-22,8	29,3
1,626	-22,1	26,0
1,6265	-19,9	18,8
1,627	-16,6	9,5
1,6275	-12,6	0,8
1,628	-9,5	-2,9
1,6285	-8,6	1,0
1,629	-9,5	10,5
1,6295	-11,1	21,0
1,63	-12,1	28,8
1,6305	-12,3	33,0
1,631	-11,8	33,3
1,6315	-10,1	28,8
1,632	-6,7	19,4
1,6325	-1,8	7,0
1,633	3,0	-4,3
1,6335	6,2	-10,6
1,634	7,1	-10,9
1,6345	6,0	-6,8
1,635	3,6	0,3
1,6355	0,4	8,7
1,636	-2,3	15,6
1,6365	-3,1	17,8
1,637	-1,1	14,4
1,6375	3,0	8,2
1,638	7,2	2,5
1,6385	9,8	-0,7
1,639	10,7	-1,6
1,6395	9,5	0,3
1,64	6,4	5,8
1,6405	1,7	14,8
1,641	-3,8	24,8
1,6415	-8,2	32,0
1,642	-10,5	33,9
1,6425	-10,6	31,1
1,643	-8,9	25,2
1,6435	-5,5	17,6
1,644	-1,1	10,1
1,6445	2,7	5,7
1,645	3,6	7,3
1,6455	1,3	13,9
1,646	-2,8	22,0
1,6465	-6,8	27,9
1,647	-9,7	30,5
1,6475	-11,3	30,1
1,648	-11,4	26,0
1,6485	-9,4	17,7
1,649	-5,5	5,9
1,6495	-0,9	-5,9
1,65	2,7	-13,6
1,6505	4,3	-15,2
1,651	3,7	-11,7
1,6515	1,5	-5,0
1,652	-1,8	2,9
1,6525	-5,2	10,0
1,653	-7,0	13,3
1,6535	-6,2	11,1
1,654	-3,2	5,2
1,6545	0,3	-0,9
1,655	2,6	-4,5
1,6555	3,3	-5,6
1,656	2,5	-4,3
1,6565	0,1	0,3
1,657	-3,8	8,8
1,6575	-8,5	20,2
1,658	-12,3	30,4
1,6585	-13,6	35,8
1,659	-12,4	35,6
1,6595	-9,4	30,6
1,66	-5,3	22,6
1,6605	-0,6	13,3
1,661	4,1	5,7
1,6615	7,1	3,6
1,662	7,8	7,8
1,6625	6,4	15,4
1,663	4,0	22,4
1,6635	1,2	26,4
1,664	-2,0	27,8
1,6645	-4,5	26,1
1,665	-5,2	20,4
1,6655	-3,1	10,4
1,666	0,7	-1,3
1,6665	4,4	-10,3
1,667	6,7	-13,4
1,6675	7,0	-10,5
1,668	5,3	-3,6
1,6685	2,1	5,4
1,669	-1,9	14,5
1,6695	-5,4	20,6
1,67	-6,5	20,6
1,6705	-5,0	15,0
1,671	-1,8	7,1
1,6715	1,4	0,6
1,672	3,3	-3,2
1,6725	3,3	-4,2
1,673	1,2	-1,7
1,6735	-3,1	5,1
1,674	-9,0	15,8
1,6745	-14,6	27,2
1,675	-17,6	34,9
1,6755	-17,6	37,1
1,676	-15,2	33,8
1,6765	-11,4	26,7
1,677	-6,9	17,4
1,6775	-2,3	8,6
1,678	0,9	4,5
1,6785	1,8	7,0
1,679	0,3	14,6
1,6795	-2,2	23,1
1,68	-4,5	29,4
1,6805	-6,0	32,9
1,681	-6,0	33,3
1,6815	-3,8	29,4
1,682	0,6	20,4
1,6825	6,3	7,4
1,683	11,4	-5,3
1,6835	14,3	-13,6
1,684	14,3	-16,0
1,6845	11,6	-13,2
1,685	7,6	-6,5
1,6855	3,3	2,7
1,686	0,2	11,3
1,6865	-0,3	15,7
1,687	2,2	14,2
1,6875	6,8	8,5
1,688	11,4	2,2
1,6885	14,5	-2,4
1,689	15,8	-4,9
1,6895	15,1	-4,0
1,69	12,2	1,6
1,6905	7,3	12,3
1,691	1,3	25,6
1,6915	-4,1	36,0
1,692	-7,4	40,2
1,6925	-8,2	37,7
1,693	-6,8	30,5
1,6935	-3,9	20,8
1,694	-0,2	10,6
1,6945	2,9	3,6
1,695	4,1	2,9
1,6955	3,1	8,4
1,696	0,9	16,5
1,6965	-1,4	23,2
1,697	-3,4	26,3
1,6975	-5,3	25,9
1,698	-6,3	21,3
1,6985	-5,5	12,3
1,699	-2,6	-0,2
1,6995	1,2	-12,3
1,7	3,7	-20,0
1,7005	3,6	-21,1
1,701	1,2	-16,5
1,7015	-2,5	-8,4
1,702	-6,8	1,4
1,7025	-10,9	10,5
1,703	-13,2	15,4
1,7035	-12,8	13,9
1,704	-10,4	7,1
1,7045	-7,7	-1,4
1,705	-6,0	-8,0
1,7055	-5,4	-11,6
1,706	-5,8	-11,5
1,7065	-7,6	-6,4
1,707	-11,3	3,7
1,7075	-16,8	16,9
1,708	-22,5	28,3
1,7085	-26,5	33,9
1,709	-27,8	32,9
1,7095	-26,4	27,3
1,71	-22,4	19,6
1,7105	-16,3	12,0
1,711	-9,6	7,1
1,7115	-4,6	7,8
1,712	-2,8	14,1
1,7125	-3,5	22,9
1,713	-5,2	30,3
1,7135	-6,4	34,3
1,714	-6,9	35,0
1,7145	-6,1	32,2
1,715	-3,1	25,4
1,7155	2,2	14,4
1,716	8,8	1,5
1,7165	14,8	-9,5
1,717	18,4	-15,6
1,7175	19,5	-16,0
1,718	18,7	-11,6
1,7185	16,7	-3,5
1,719	14,0	6,3
1,7195	11,6	14,0
1,72	10,7	16,5
1,7205	11,3	13,4
1,721	12,0	7,8
1,7215	11,5	2,8
1,722	9,4	-0,1
1,7225	6,4	-0,6
1,723	2,1	2,3
1,7235	-3,7	9,4
1,724	-11,0	20,3
1,7245	-18,4	31,6
1,725	-23,8	38,8
1,7255	-25,9	39,7
1,726	-25,1	35,1
1,7265	-22,2	26,7
1,727	-18,2	16,2
1,7275	-13,9	6,1
1,728	-11,0	0,2
1,7285	-10,3	0,9
1,729	-11,6	6,9
1,7295	-13,3	14,4
1,73	-14,3	20,0
1,7305	-14,5	22,7
1,731	-13,7	22,1
1,7315	-11,8	17,2
1,732	-8,3	7,8
1,7325	-3,8	-4,4
1,733	0,4	-14,9
1,7335	2,9	-19,8
1,734	3,1	-18,0
1,7345	1,0	-11,2
1,735	-2,7	-1,8
1,7355	-7,7	7,9
1,736	-12,5	14,8
1,7365	-15,4	15,9
1,737	-15,6	10,4
1,7375	-13,7	1,2
1,738	-11,2	-7,6
1,7385	-9,0	-13,1
1,739	-7,5	-14,9
1,7395	-7,1	-12,3
1,74	-8,5	-4,9
1,7405	-12,0	7,1
1,741	-17,0	20,9
1,7415	-21,4	31,8
1,742	-23,4	36,7
1,7425	-22,2	35,8
1,743	-18,1	31,0
1,7435	-11,9	24,0
1,744	-4,8	16,5
1,7445	1,6	11,9
1,745	5,4	13,1
1,7455	6,4	19,4
1,746	5,5	27,1
1,7465	3,9	32,1
1,747	2,1	33,1
1,7475	0,7	31,1
1,748	0,8	26,0
1,7485	3,5	17,8
1,749	8,6	6,7
1,7495	14,6	-4,7
1,75	19,1	-12,8
1,7505	21,1	-15,7
1,751	20,5	-13,4
1,7515	18,1	-7,3
1,752	14,4	1,3
1,7525	10,6	10,4
1,753	8,5	16,3
1,7535	9,5	16,6
1,754	12,7	12,2
1,7545	16,2	6,0
1,755	18,1	0,9
1,7555	17,9	-2,2
1,756	16,0	-2,5
1,7565	12,3	1,3
1,757	6,5	9,9
1,7575	-1,6	21,7
1,758	-10,3	32,5
1,7585	-17,5	38,2
1,759	-21,7	37,7
1,7595	-22,7	32,3
1,76	-21,1	23,6
1,7605	-17,6	13,2
1,761	-13,8	3,9
1,7615	-11,3	-0,3
1,762	-11,2	2,3
1,7625	-12,8	9,3
1,763	-14,4	16,6
1,7635	-15,1	21,5
1,764	-14,5	23,6
1,7645	-12,4	22,4
1,765	-8,7	17,1
1,7655	-3,4	8,0
1,766	2,2	-3,0
1,7665	6,5	-11,8
1,767	8,3	-15,8
1,7675	8,1	-14,6
1,768	6,6	-9,5
1,7685	4,4	-1,5
1,769	1,8	7,5
1,7695	0,2	14,3
1,77	1,1	15,8
1,7705	4,8	11,9
1,771	9,8	5,8
1,7715	14,4	0,8
1,772	17,6	-1,8
1,7725	19,0	-1,9
1,773	18,2	0,9
1,7735	15,0	7,4
1,774	9,5	17,3
1,7745	3,3	27,8
1,775	-1,6	34,9
1,7755	-3,9	36,8
1,776	-3,7	34,0
1,7765	-1,8	27,8
1,777	0,9	19,3
1,7775	3,3	10,7
1,778	3,9	5,8
1,7785	1,5	7,4
1,779	-3,2	14,1
1,7795	-8,1	22,1
1,78	-11,5	28,1
1,7805	-12,9	31,2
1,781	-12,8	30,9
1,7815	-11,3	25,9
1,782	-8,3	15,7
1,7825	-3,8	1,9
1,783	0,8	-10,8
1,7835	3,9	-17,9
1,784	5,2	-18,3
1,7845	4,6	-13,3
1,785	2,8	-5,2
1,7855	0,0	4,0
1,786	-2,6	11,6
1,7865	-3,4	14,2
1,787	-1,3	11,0
1,7875	2,9	4,7
1,788	7,4	-1,7
1,7885	10,8	-5,9
1,789	12,8	-7,7
1,7895	12,8	-6,0
1,79	10,5	0,1
1,7905	6,0	10,0
1,791	0,2	21,4
1,7915	-4,7	30,3
1,792	-7,6	33,9
1,7925	-8,3	32,3
1,793	-7,2	26,9
1,7935	-4,6	19,2
1,794	-0,9	10,6
1,7945	2,4	4,4
1,795	3,5	3,8
1,7955	1,5	8,5
1,796	-2,8	15,1
1,7965	-7,7	19,9
1,797	-11,9	21,6
1,7975	-14,7	20,6
1,798	-15,6	16,8
1,7985	-13,9	9,8
1,799	-10,0	-0,1
1,7995	-5,5	-10,3
1,8	-2,3	-17,1
1,8005	-1,1	-18,2
1,801	-1,4	-14,2
1,8015	-2,6	-6,4
1,802	-4,1	3,6
1,8025	-5,3	13,6
1,803	-5,0	20,0
1,8035	-2,4	20,3
1,804	1,8	15,6
1,8045	5,7	9,1
1,805	7,5	3,7
1,8055	7,1	-0,0
1,806	4,7	-1,6
1,8065	0,4	0,4
1,807	-5,5	6,6
1,8075	-12,3	16,3
1,808	-18,2	25,9
1,8085	-20,8	31,9
1,809	-19,5	33,0
1,8095	-14,9	29,7
1,81	-8,1	23,1
1,8105	-0,4	14,3
1,811	6,7	6,1
1,8115	11,1	2,5
1,812	11,8	5,0
1,8125	9,6	11,4
1,813	6,4	17,6
1,8135	3,8	21,5
1,814	2,3	23,1
1,8145	2,4	22,2
1,815	4,5	17,8
1,8155	8,7	9,8
1,816	13,9	0,5
1,8165	17,8	-6,6
1,817	18,8	-9,4
1,8175	16,3	-8,2
1,818	11,3	-3,8
1,8185	4,6	3,3
1,819	-2,8	11,8
1,8195	-9,8	18,1
1,82	-14,4	18,4
1,8205	-16,4	12,5
1,821	-16,4	4,0
1,8215	-15,6	-3,3
1,822	-14,8	-7,7
1,8225	-14,6	-9,2
1,823	-15,6	-6,8
1,8235	-18,2	0,4
1,824	-22,1	11,9
1,8245	-26,1	24,1
1,825	-28,7	32,2
1,8255	-29,1	34,0
1,826	-27,6	30,1
1,8265	-24,4	22,3
1,827	-19,8	12,6
1,8275	-14,3	3,1
1,828	-9,9	-2,6
1,8285	-8,0	-2,0
1,829	-8,9	3,6
1,8295	-11,1	10,3
1,83	-13,1	15,0
1,8305	-13,9	17,4
1,831	-13,4	17,7
1,8315	-10,9	14,8
1,832	-6,1	8,0
1,8325	0,5	-1,7
1,833	7,0	-10,4
1,8335	11,8	-14,4
1,834	13,7	-12,8
1,8345	13,1	-7,0
1,835	10,6	0,9
1,8355	7,1	9,9
1,836	3,9	17,5
1,8365	2,6	20,5
1,837	3,8	17,8
1,8375	6,7	11,2
1,838	9,6	4,5
1,8385	11,3	-0,4
1,839	11,6	-3,4
1,8395	10,4	-3,6
1,84	7,3	0,4
1,8405	2,0	9,0
1,841	-4,7	20,2
1,8415	-10,8	29,4
1,842	-14,9	33,4
1,8425	-16,2	31,8
1,843	-14,6	26,2
1,8435	-10,6	18,1
1,844	-5,2	9,3
1,8445	-0,4	3,5
1,845	1,7	4,0
1,8455	0,5	10,6
1,846	-2,9	19,8
1,8465	-6,8	27,3
1,847	-10,2	31,2
1,8475	-12,8	31,5
1,848	-13,8	27,8
1,8485	-12,6	19,4
1,849	-9,1	7,0
1,8495	-4,6	-5,9
1,85	-1,2	-14,8
1,8505	0,1	-17,6
1,851	-0,7	-14,6
1,8515	-2,6	-7,7
1,852	-5,2	1,6
1,8525	-7,8	11,1
1,853	-9,3	17,0
1,8535	-8,8	16,4
1,854	-6,3	10,1
1,8545	-3,4	1,8
1,855	-1,3	-4,9
1,8555	-0,1	-9,0
1,856	-0,1	-10,0
1,8565	-1,9	-7,0
1,857	-5,7	0,7
1,8575	-10,6	11,9
1,858	-14,8	23,3
1,8585	-16,7	30,9
1,859	-15,7	33,2
1,8595	-12,4	30,9
1,86	-7,5	25,3
1,8605	-1,7	17,8
1,861	3,9	11,2
1,8615	7,7	9,2
1,862	8,4	13,0
1,8625	6,8	20,4
1,863	4,4	27,4
1,8635	2,4	31,7
1,864	1,1	32,8
1,8645	1,1	30,5
1,865	3,5	24,0
1,8655	8,8	13,3
1,866	16,0	1,0
1,8665	22,7	-8,6
1,867	27,2	-12,4
1,8675	28,8	-10,4
1,868	28,2	-4,6
1,8685	25,7	3,3
1,869	21,9	11,6
1,8695	17,9	17,5
1,87	15,6	18,6
1,8705	15,7	14,6
1,871	17,2	8,5
1,8715	18,5	3,5
1,872	18,7	1,1
1,8725	17,2	1,0
1,873	14,0	3,6
1,8735	9,0	9,9
1,874	2,5	19,8
1,8745	-4,3	31,2
1,875	-9,9	40,0
1,8755	-13,1	43,9
1,876	-13,6	42,6
1,8765	-12,2	37,2
1,877	-9,5	28,8
1,8775	-6,4	19,8
1,878	-4,4	13,7
1,8785	-4,8	13,2
1,879	-7,4	17,7
1,8795	-10,7	23,8
1,88	-13,0	29,0
1,8805	-13,9	32,7
1,881	-13,4	34,5
1,8815	-11,8	32,8
1,882	-9,2	25,9
1,8825	-5,8	14,8
1,883	-2,3	3,1
1,8835	0,4	-4,8
1,884	1,9	-7,2
1,8845	2,2	-4,8
1,885	1,4	1,0
1,8855	-0,4	9,1
1,886	-2,3	17,0
1,8865	-3,2	21,3
1,887	-2,3	20,0
1,8875	-0,2	14,6
1,888	1,7	8,6
1,8885	2,6	4,3
1,889	2,5	2,0
1,8895	1,2	2,4
1,89	-1,7	6,7
1,8905	-6,2	15,6
1,891	-12,0	26,8
1,8915	-17,7	36,1
1,892	-21,9	39,8
1,8925	-23,8	37,7
1,893	-23,2	31,8
1,8935	-20,3	24,2
1,894	-16,1	16,7
1,8945	-12,3	11,7
1,895	-10,5	12,0
1,8955	-11,5	17,7
1,896	-14,4	25,4
1,8965	-17,7	31,2
1,897	-20,4	33,3
1,8975	-22,1	32,3
1,898	-21,7	28,3
1,8985	-18,6	20,8
1,899	-13,0	10,2
1,8995	-6,7	-1,0
1,9	-1,7	-9,3
1,9005	0,8	-12,5
1,901	0,7	-10,8
1,9015	-1,3	-5,8
1,902	-4,5	1,7
1,9025	-7,9	9,6
1,903	-10,1	14,6
1,9035	-9,8	13,9
1,904	-7,6	8,3
1,9045	-4,8	1,1
1,905	-2,5	-4,4
1,9055	-0,8	-7,0
1,906	0,3	-6,4
1,9065	-0,2	-1,9
1,907	-3,0	6,5
1,9075	-8,0	17,4
1,908	-13,3	27,4
1,9085	-17,2	33,0
1,909	-18,5	33,4
1,9095	-17,3	29,8
1,91	-13,7	23,8
1,9105	-8,4	16,8
1,911	-2,8	10,8
1,9115	0,8	8,7
1,912	0,8	11,6
1,9125	-2,1	17,7
1,913	-5,6	23,5
1,9135	-7,8	27,2
1,914	-8,2	28,9
1,9145	-6,8	28,3
1,915	-3,6	24,2
1,9155	0,8	15,9
1,916	5,4	5,4
1,9165	8,7	-3,4
1,917	9,5	-7,5
1,9175	7,8	-6,5
1,918	3,9	-1,4
1,9185	-1,3	6,9
1,919	-6,9	16,7
1,9195	-11,3	24,6
1,92	-13,0	26,5
1,9205	-11,8	22,0
1,921	-9,1	13,9
1,9215	-6,6	6,1
1,922	-5,2	0,8
1,9225	-4,9	-2,0
1,923	-5,9	-0,9
1,9235	-8,5	5,1
1,924	-12,8	15,9
1,9245	-17,8	28,6
1,925	-21,4	38,2
1,9255	-22,5	42,0
1,926	-20,9	40,1
1,9265	-17,4	33,8
1,927	-12,6	24,9
1,9275	-7,4	16,1
1,928	-3,4	11,1
1,9285	-2,2	12,2
1,929	-3,7	17,9
1,9295	-6,7	24,8
1,93	-8,9	29,8
1,9305	-9,3	32,5
1,931	-7,8	33,0
1,9315	-4,6	30,3
1,932	-0,0	23,3
1,9325	5,4	12,7
1,933	10,6	2,2
1,9335	14,2	-4,2
1,934	15,3	-5,1
1,9345	13,8	-1,2
1,935	10,4	6,1
1,9355	5,8	15,1
1,936	1,1	23,0
1,9365	-1,9	25,7
1,937	-2,0	22,3
1,9375	0,6	15,5
1,938	4,3	9,4
1,9385	7,9	6,2
1,939	10,5	5,5
1,9395	11,6	7,3
1,94	10,3	12,5
1,9405	6,5	21,7
1,941	0,8	33,3
1,9415	-4,9	43,3
1,942	-9,3	48,4
1,9425	-11,6	47,6
1,943	-11,9	41,8
1,9435	-10,3	32,8
1,944	-7,4	22,7
1,9445	-4,5	15,0
1,945	-3,3	13,4
1,9455	-4,3	18,0
1,946	-6,3	25,7
1,9465	-8,2	32,5
1,947	-9,3	36,5
1,9475	-9,7	37,6
1,948	-8,9	34,8
1,9485	-6,1	27,5
1,949	-1,3	16,2
1,9495	4,3	4,0
1,95	9,0	-4,5
1,9505	11,3	-7,0
1,951	11,1	-4,0
1,9515	8,6	2,4
1,952	4,6	10,4
1,9525	0,3	18,0
1,953	-2,5	22,0
1,9535	-2,3	19,8
1,954	0,3	12,8
1,9545	3,8	4,9
1,955	6,3	-0,5
1,9555	7,1	-2,6
1,956	6,0	-1,8
1,9565	3,1	2,8
1,957	-1,7	11,8
1,9575	-7,7	24,3
1,958	-13,1	36,8
1,9585	-15,7	45,0
1,959	-14,9	47,3
1,9595	-11,6	43,9
1,96	-7,1	36,5
1,9605	-2,3	27,0
1,961	2,0	18,7
1,9615	4,2	15,6
1,962	3,5	19,1
1,9625	0,4	26,3
1,963	-3,5	33,1
1,9635	-6,8	36,9
1,964	-8,9	37,8
1,9645	-9,2	35,5
1,965	-7,3	29,3
1,9655	-2,9	18,7
1,966	3,0	5,8
1,9665	8,7	-5,2
1,967	12,8	-10,8
1,9675	14,7	-10,2
1,968	14,4	-4,1
1,9685	12,2	5,7
1,969	8,7	16,9
1,9695	5,1	25,7
1,97	3,0	28,5
1,9705	2,6	24,8
1,971	2,9	17,4
1,9715	2,5	10,3
1,972	1,1	5,3
1,9725	-1,3	2,8
1,973	-4,6	3,6
1,9735	-9,0	8,8
1,974	-14,5	18,2
1,9745	-20,1	29,0
1,975	-24,0	37,3
1,9755	-25,4	40,8
1,976	-24,3	39,2
1,9765	-21,2	33,8
1,977	-16,8	26,1
1,9775	-11,8	18,0
1,978	-8,2	13,3
1,9785	-7,6	14,4
1,979	-10,2	20,4
1,9795	-14,8	27,3
1,98	-19,4	31,8
1,9805	-22,9	33,3
1,981	-24,3	32,3
1,9815	-23,2	28,1
1,982	-19,4	20,0
1,9825	-13,3	8,6
1,983	-6,6	-2,4
1,9835	-1,4	-8,9
1,984	1,2	-9,5
1,9845	1,3	-4,8
1,985	-0,4	3,6
1,9855	-3,0	14,4
1,986	-5,8	24,4
1,9865	-7,7	29,2
1,987	-8,3	26,4
1,9875	-7,9	18,5
1,988	-7,3	10,3
1,9885	-7,0	4,7
1,989	-7,1	2,3
1,9895	-8,2	3,3
1,99	-10,8	8,3
1,9905	-15,3	17,2
1,991	-21,1	27,8
1,9915	-26,5	35,9
1,992	-29,8	38,4
1,9925	-30,4	35,2
1,993	-28,4	28,2
1,9935	-24,6	19,3
1,994	-19,7	10,3
1,9945	-15,1	4,2
1,995	-12,4	4,2
1,9955	-12,0	10,5
1,996	-13,0	19,8
1,9965	-14,1	27,6
1,997	-14,2	31,9
1,9975	-13,4	33,1
1,998	-11,4	30,8
1,9985	-7,5	24,5
1,999	-1,5	14,3
1,9995	5,6	3,1
2	12,0	-4,8
2,0005	16,0	-7,1
2,001	17,1	-3,9
2,0015	15,5	2,7
2,002	11,7	11,1
2,0025	6,7	19,2
2,003	2,4	24,1
2,0035	0,8	23,6
2,004	2,0	18,2
2,0045	4,2	11,0
2,005	5,7	5,0
2,0055	5,9	1,5
2,006	4,8	0,8
2,0065	1,6	3,9
2,007	-3,9	11,4
2,0075	-11,5	22,3
2,008	-19,2	33,0
2,0085	-24,9	40,2
2,009	-27,5	42,3
2,0095	-27,1	40,6
2,01	-24,4	36,2
2,0105	-20,7	29,5
2,011	-17,4	22,1
2,0115	-16,0	17,6
2,012	-17,0	18,9
2,0125	-19,2	25,2
2,013	-20,6	33,0
2,0135	-20,6	38,7
2,014	-19,5	41,1
2,0145	-17,6	39,3
2,015	-14,5	32,7
2,0155	-9,8	21,8
2,016	-3,7	8,5
2,0165	2,2	-2,8
2,017	5,9	-8,8
2,0175	6,6	-8,9
2,018	4,5	-4,8
2,0185	0,3	1,8
2,019	-4,8	9,4
2,0195	-9,2	15,4
2,02	-11,3	16,9
2,0205	-10,6	13,5
2,021	-8,1	7,9
2,0215	-5,3	3,2
2,022	-3,1	0,8
2,0225	-2,0	0,5
2,023	-2,2	3,3
2,0235	-4,3	10,3
2,024	-8,2	21,1
2,0245	-13,1	33,0
2,025	-17,0	41,6
2,0255	-18,8	44,2
2,026	-18,4	40,8
2,0265	-16,4	33,4
2,027	-13,1	24,0
2,0275	-9,5	15,2
2,028	-6,9	10,4
2,0285	-6,7	12,4
2,029	-8,3	19,8
2,0295	-10,3	28,7
2,03	-11,2	35,5
2,0305	-11,0	38,7
2,031	-9,8	38,5
2,0315	-7,3	34,2
2,032	-2,9	25,4
2,0325	3,5	13,3
2,033	10,5	1,4
2,0335	16,4	-6,1
2,034	20,1	-7,6
2,0345	21,7	-4,2
2,035	21,3	2,1
2,0355	19,3	10,1
2,036	16,9	17,8
2,0365	16,0	22,2
2,037	17,8	21,4
2,0375	21,4	16,9
2,038	25,1	11,6
2,0385	26,9	7,8
2,039	26,3	6,1
2,0395	23,7	7,3
2,04	19,0	12,4
2,0405	11,8	21,5
2,041	2,3	32,4
2,0415	-8,2	41,3
2,042	-17,3	45,3
2,0425	-23,3	43,6
2,043	-25,8	37,9
2,0435	-25,3	29,8
2,044	-23,2	20,8
2,0445	-21,3	13,6
2,045	-21,4	11,9
2,0455	-24,1	16,3
2,046	-28,3	23,5
2,0465	-32,6	29,5
2,047	-35,8	31,9
2,0475	-37,6	30,8
2,048	-37,2	26,7
2,0485	-33,9	19,3
2,049	-27,6	9,1
2,0495	-19,6	-1,4
2,05	-12,1	-8,2
2,0505	-6,8	-9,3
2,051	-4,2	-5,5
2,0515	-4,1	1,2
2,052	-6,0	9,5
2,0525	-8,9	17,6
2,053	-11,2	22,5
2,0535	-11,1	21,7
2,054	-8,6	16,1
2,0545	-5,1	8,8
2,055	-2,2	3,0
2,0555	-0,5	-0,7
2,056	-0,1	-2,0
2,0565	-1,1	0,1
2,057	-3,8	6,7
2,0575	-7,9	17,2
2,058	-12,1	28,4
2,0585	-14,8	36,0
2,059	-15,0	38,3
2,0595	-13,0	36,0
2,06	-9,3	30,3
2,0605	-4,7	22,5
2,061	-0,4	14,6
2,0615	1,7	10,3
2,062	0,5	11,9
2,0625	-2,9	18,0
2,063	-6,6	25,2
2,0635	-8,8	30,4
2,064	-9,0	33,3
2,0645	-7,6	33,3
2,065	-4,9	29,1
2,0655	-1,4	20,1
2,066	2,4	7,9
2,0665	5,6	-3,4
2,067	6,9	-10,0
2,0675	6,2	-10,7
2,068	3,9	-6,7
2,0685	0,8	0,4
2,069	-2,5	8,8
2,0695	-5,3	15,5
2,07	-6,3	17,5
2,0705	-4,7	14,3
2,071	-1,0	8,5
2,0715	3,4	3,4
2,072	7,2	0,8
2,0725	9,9	0,3
2,073	10,5	2,7
2,0735	8,6	8,6
2,074	4,3	18,0
2,0745	-1,2	28,6
2,075	-5,7	36,9
2,0755	-7,8	40,7
2,076	-7,5	40,2
2,0765	-5,9	36,2
2,077	-3,9	29,3
2,0775	-2,6	20,9
2,078	-3,2	14,6
2,0785	-6,7	13,8
2,079	-12,5	18,3
2,0795	-18,8	25,0
2,08	-23,6	30,3
2,0805	-26,5	33,1
2,081	-27,6	33,0
2,0815	-26,8	28,6
2,082	-24,0	19,1
2,0825	-19,1	5,6
2,083	-12,8	-7,4
2,0835	-6,8	-14,9
2,084	-1,9	-15,1
2,0845	1,4	-9,2
2,085	3,4	0,6
2,0855	3,8	12,1
2,086	2,9	22,4
2,0865	1,7	27,6
2,087	1,4	25,6
2,0875	2,5	18,6
2,088	4,1	10,9
2,0885	5,6	5,6
2,089	6,4	3,2
2,0895	6,1	3,8
2,09	3,8	8,2
2,0905	-1,1	16,8
2,091	-7,7	27,9
2,0915	-14,0	37,4
2,092	-17,9	41,9
2,0925	-18,6	40,8
2,093	-16,8	35,2
2,0935	-13,4	26,7
2,094	-9,1	17,0
2,0945	-5,5	9,1
2,095	-4,0	6,9
2,0955	-5,0	10,9
2,096	-7,3	18,7
2,0965	-9,4	26,2
2,097	-10,1	31,4
2,0975	-9,7	34,2
2,098	-8,3	33,3
2,0985	-5,7	27,8
2,099	-1,6	17,6
2,0995	3,7	5,5
2,1	8,8	-3,4
2,1005	12,6	-6,1
2,101	14,5	-2,9
2,1015	14,4	4,4
2,102	12,5	13,7
2,1025	9,5	23,2
2,103	7,2	29,4
2,1035	7,4	29,4
2,104	10,1	23,9
2,1045	14,0	16,1
2,105	17,4	9,4
2,1055	19,4	4,9
2,106	19,8	3,0
2,1065	18,5	5,0
2,107	15,4	11,8
2,1075	10,8	22,4
2,108	5,8	33,0
2,1085	2,3	39,3
2,109	1,0	39,7
2,1095	1,9	35,2
2,11	4,5	28,0
2,1105	8,1	19,7
2,111	11,3	12,3
2,1115	12,3	9,3
2,112	9,8	12,3
2,1125	4,4	19,3
2,113	-2,2	26,5
2,1135	-8,3	31,1
2,114	-13,3	32,9
2,1145	-16,8	31,8
2,115	-18,3	27,5
2,1155	-17,8	19,6
2,116	-15,8	9,3
2,1165	-14,0	0,0
2,117	-14,1	-5,3
2,1175	-16,2	-5,7
2,118	-19,4	-1,8
2,1185	-22,8	5,0
2,119	-25,7	13,3
2,1195	-27,7	20,0
2,12	-27,6	21,0
2,1205	-25,2	15,5
2,121	-21,1	6,6
2,1215	-16,4	-1,4
2,122	-12,0	-6,3
2,1225	-8,4	-7,9
2,123	-6,1	-5,7
2,1235	-5,7	1,2
2,124	-7,3	12,6
2,1245	-10,0	25,5
2,125	-12,3	35,4
2,1255	-12,8	39,4
2,126	-11,0	37,2
2,1265	-7,1	30,9
2,127	-1,5	22,6
2,1275	4,8	15,0
2,128	9,9	11,4
2,1285	11,9	13,8
2,129	10,6	20,7
2,1295	7,2	28,6
2,13	3,6	34,4
2,1305	0,6	37,0
2,131	-1,3	36,4
2,1315	-1,8	31,8
2,132	-0,5	22,9
2,1325	2,2	10,2
2,133	4,9	-2,9
2,1335	6,0	-12,3
2,134	4,8	-15,6
2,1345	1,5	-13,5
2,135	-3,0	-7,5
2,1355	-8,1	1,0
2,136	-12,8	9,8
2,1365	-15,0	15,5
2,137	-13,9	15,7
2,1375	-10,3	11,4
2,138	-6,5	5,7
2,1385	-3,8	0,9
2,139	-2,6	-1,8
2,1395	-2,9	-1,6
2,14	-4,9	2,9
2,1405	-8,9	12,1
2,141	-14,4	23,9
2,1415	-19,4	34,4
2,142	-22,0	40,3
2,1425	-21,3	40,8
2,143	-17,8	37,2
2,1435	-12,8	30,7
2,144	-7,6	22,4
2,1445	-3,7	15,2
2,145	-3,1	12,7
2,1455	-5,7	15,9
2,146	-10,0	22,1
2,1465	-14,0	27,9
2,147	-16,7	31,7
2,1475	-17,9	33,7
2,148	-17,3	32,9
2,1485	-14,7	28,0
2,149	-9,9	18,6
2,1495	-4,3	6,9
2,15	0,4	-2,8
2,1505	2,7	-7,4
2,151	2,4	-6,5
2,1515	0,3	-1,4
2,152	-3,1	6,7
2,1525	-6,9	15,9
2,153	-9,6	23,0
2,1535	-9,8	24,6
2,154	-7,6	20,6
2,1545	-4,7	13,9
2,155	-2,4	7,9
2,1555	-1,0	4,2
2,156	-0,2	3,4
2,1565	-0,1	7,0
2,157	-1,6	15,4
2,1575	-4,7	27,4
2,158	-8,1	39,3
2,1585	-9,8	46,8
2,159	-9,0	48,0
2,1595	-6,2	43,5
2,16	-2,3	35,0
2,1605	1,9	24,8
2,161	5,8	15,9
2,1615	7,9	12,2
2,162	7,4	15,4
2,1625	4,7	23,3
2,163	1,1	31,6
2,1635	-2,4	37,1
2,164	-5,0	39,3
2,1645	-6,2	38,4
2,165	-5,6	33,3
2,1655	-3,2	23,6
2,166	0,4	10,6
2,1665	3,7	-1,8
2,167	5,5	-9,5
2,1675	5,4	-10,8
2,168	3,7	-6,9
2,1685	1,0	0,7
2,169	-2,2	9,9
2,1695	-4,6	17,7
2,17	-4,7	20,8
2,1705	-2,0	18,3
2,171	2,4	12,9
2,1715	6,6	8,0
2,172	9,5	5,4
2,1725	10,9	5,3
2,173	10,9	8,1
2,1735	8,9	14,7
2,174	4,8	24,6
2,1745	-0,4	35,3
2,175	-5,0	42,5
2,1755	-7,5	44,2
2,176	-7,7	40,8
2,1765	-6,3	34,1
2,177	-3,7	25,2
2,1775	-0,7	16,0
2,178	1,2	9,8
2,1785	0,8	9,7
2,179	-1,7	15,4
2,1795	-5,1	23,4
2,18	-8,3	30,1
2,1805	-10,7	33,9
2,181	-11,8	34,8
2,1815	-10,6	32,3
2,182	-6,9	25,8
2,1825	-0,8	15,6
2,183	6,1	4,5
2,1835	12,1	-3,6
2,184	16,0	-6,5
2,1845	17,7	-4,1
2,185	17,7	2,3
2,1855	17,0	11,7
2,186	16,3	21,3
2,1865	16,9	27,3
2,187	19,6	26,9
2,1875	23,5	21,6
2,188	27,2	15,1
2,1885	29,4	10,7
2,189	30,4	9,2
2,1895	30,1	10,7
2,19	27,9	16,0
2,1905	22,8	25,2
2,191	14,7	36,3
2,1915	5,3	45,8
2,192	-3,9	50,3
2,1925	-11,7	49,1
2,193	-17,8	43,1
2,1935	-21,8	33,7
2,194	-23,5	22,8
2,1945	-24,0	13,7
2,195	-25,3	10,6
2,1955	-28,0	14,4
2,196	-31,4	21,9
2,1965	-33,7	28,9
2,197	-34,0	32,8
2,1975	-32,7	33,5
2,198	-30,1	30,5
2,1985	-25,7	23,5
2,199	-19,6	13,1
2,1995	-12,6	1,7
2,2	-6,6	-6,6
2,2005	-2,9	-9,0
2,201	-1,5	-5,7
2,2015	-2,0	1,6
2,202	-3,8	10,8
2,2025	-6,4	19,8
2,203	-8,4	25,3
2,2035	-8,3	24,7
2,204	-6,2	19,0
2,2045	-3,1	11,6
2,205	-0,3	6,0
2,2055	1,7	3,5
2,206	2,6	4,0
2,2065	1,9	8,3
2,207	-0,9	16,7
2,2075	-5,8	28,3
2,208	-11,3	39,6
2,2085	-15,8	46,1
2,209	-18,2	46,0
2,2095	-18,4	40,3
2,21	-16,8	31,0
2,2105	-13,8	19,9
2,211	-10,1	9,7
2,2115	-7,5	4,3
2,212	-7,5	5,8
2,2125	-9,6	12,3
2,213	-12,1	19,7
2,2135	-13,4	25,0
2,214	-13,1	27,8
2,2145	-11,0	28,0
2,215	-6,9	24,5
2,2155	-0,8	17,0
2,216	6,5	6,6
2,2165	13,2	-3,3
2,217	17,3	-9,0
2,2175	18,4	-9,9
2,218	17,2	-6,8
2,2185	14,4	-0,8
2,219	11,0	7,0
2,2195	8,1	14,3
2,22	7,1	17,3
2,2205	8,5	14,6
2,221	11,1	8,1
2,2215	13,3	1,3
2,222	14,1	-3,3
2,2225	13,7	-5,4
2,223	11,9	-3,9
2,2235	8,5	2,1
2,224	3,1	12,7
2,2245	-3,5	25,3
2,225	-9,5	35,5
2,2255	-13,5	40,4
2,226	-15,2	39,8
2,2265	-15,3	34,6
2,227	-14,0	26,3
2,2275	-11,8	16,8
2,228	-10,2	10,2
2,2285	-10,5	9,9
2,229	-12,8	15,8
2,2295	-15,8	24,1
2,23	-17,9	30,8
2,2305	-18,3	34,3
2,231	-17,3	34,2
2,2315	-14,6	30,3
2,232	-10,1	22,7
2,2325	-3,8	12,7
2,233	2,8	3,3
2,2335	7,9	-2,1
2,234	10,0	-2,6
2,2345	9,2	0,8
2,235	6,5	6,7
2,2355	2,8	14,3
2,236	-0,8	21,8
2,2365	-2,7	25,9
2,237	-1,9	24,4
2,2375	1,4	18,9
2,238	5,6	12,6
2,2385	9,2	8,3
2,239	11,7	6,2
2,2395	12,8	6,8
2,24	11,6	11,1
2,2405	7,8	19,4
2,241	1,9	30,3
2,2415	-4,1	39,8
2,242	-8,0	44,4
2,2425	-8,9	42,9
2,243	-7,4	36,3
2,2435	-4,0	26,7
2,244	0,4	15,8
2,2445	4,3	7,1
2,245	5,9	4,3
2,2455	4,6	8,5
2,246	1,5	16,5
2,2465	-1,8	24,1
2,247	-4,0	29,0
2,2475	-5,1	31,4
2,248	-4,6	31,0
2,2485	-2,0	27,0
2,249	2,7	18,9
2,2495	8,7	9,0
2,25	14,3	1,2
2,2505	17,8	-1,9
2,251	18,7	-0,0
2,2515	17,1	5,6
2,252	13,8	13,5
2,2525	9,8	22,0
2,253	6,6	27,5
2,2535	5,4	27,0
2,254	6,0	20,4
2,2545	7,2	10,8
2,255	7,6	1,9
2,2555	7,0	-4,3
2,256	5,7	-7,2
2,2565	3,6	-5,1
2,257	0,7	2,4
2,2575	-3,3	14,6
2,258	-7,4	27,1
2,2585	-10,0	35,3
2,259	-10,4	37,3
2,2595	-8,4	33,9
2,26	-4,7	26,9
2,2605	0,3	17,9
2,261	5,7	9,6
2,2615	9,6	5,7
2,262	10,6	8,2
2,2625	9,0	15,0
2,263	6,1	22,2
2,2635	3,4	27,0
2,264	1,3	29,4
2,2645	0,5	29,3
2,265	1,7	25,8
2,2655	5,1	17,8
2,266	10,0	6,8
2,2665	14,6	-3,5
2,267	17,3	-9,0
2,2675	17,9	-8,4
2,268	16,7	-2,8
2,2685	14,1	5,7
2,269	10,7	15,0
2,2695	7,4	21,9
2,27	6,1	23,3
2,2705	7,5	18,3
2,271	10,8	9,3
2,2715	14,1	0,4
2,272	16,4	-5,4
2,2725	17,5	-7,3
2,273	17,3	-4,3
2,2735	15,1	3,8
2,274	10,9	16,4
2,2745	5,5	30,4
2,275	0,3	41,0
2,2755	-3,3	45,2
2,276	-5,2	42,7
2,2765	-5,5	35,4
2,277	-4,3	25,5
2,2775	-1,9	15,4
2,278	0,1	8,6
2,2785	-0,3	8,1
2,279	-3,5	13,5
2,2795	-8,5	21,1
2,28	-13,0	27,1
2,2805	-15,8	30,3
2,281	-16,7	30,7
2,2815	-15,5	27,5
2,282	-12,0	20,3
2,2825	-6,6	10,0
2,283	-0,5	-0,2
2,2835	4,2	-6,4
2,284	6,7	-7,3
2,2845	7,0	-4,0
2,285	5,8	2,0
2,2855	3,6	9,8
2,286	1,0	17,2
2,2865	-0,8	21,1
2,287	-0,7	19,3
2,2875	1,1	13,2
2,288	3,5	6,3
2,2885	5,3	1,7
2,289	5,9	-0,4
2,2895	5,6	0,3
2,29	4,1	4,5
2,2905	1,0	12,7
2,291	-3,8	23,7
2,2915	-8,6	33,6
2,292	-11,6	39,2
2,2925	-11,7	39,8
2,293	-9,2	36,4
2,2935	-5,1	30,0
2,294	-0,4	21,8
2,2945	3,6	14,4
2,295	5,2	11,5
2,2955	4,2	14,3
2,296	1,4	20,3
2,2965	-1,6	26,0
2,297	-3,8	29,6
2,2975	-4,7	31,1
2,298	-3,8	30,1
2,2985	-0,8	25,3
2,299	4,1	16,5
2,2995	9,8	5,5
2,3	14,6	-3,4
2,3005	16,8	-7,3
2,301	16,3	-5,8
2,3015	13,1	-0,7
2,302	8,1	6,9
2,3025	2,4	15,1
2,303	-1,9	20,7
2,3035	-3,3	20,6
2,304	-1,5	14,8
2,3045	1,8	6,5
2,305	4,9	-0,6
2,3055	6,8	-4,8
2,306	7,3	-5,7
2,3065	6,3	-2,5
2,307	3,7	5,8
2,3075	-0,2	18,0
2,308	-4,6	30,8
2,3085	-8,2	39,7
2,309	-10,3	42,4
2,3095	-10,9	39,4
2,31	-10,6	32,1
2,3105	-9,8	21,8
2,311	-8,9	10,9
2,3115	-8,9	3,8
2,312	-10,3	3,7
2,3125	-12,8	9,6
2,313	-15,3	17,3
2,3135	-17,1	23,2
2,314	-18,0	26,2
2,3145	-18,1	26,2
2,315	-16,6	22,2
2,3155	-12,7	14,1
2,316	-6,4	3,7
2,3165	0,7	-4,5
2,317	6,4	-7,0
2,3175	9,3	-3,3
2,318	9,0	4,4
2,3185	6,4	14,1
2,319	2,5	23,8
2,3195	-1,3	30,9
2,32	-3,3	32,5
2,3205	-2,3	28,2
2,321	1,0	20,9
2,3215	4,7	14,4
2,322	7,6	10,8
2,3225	8,9	9,9
2,323	8,2	11,9
2,3235	4,9	17,8
2,324	-1,0	27,5
2,3245	-8,2	38,9
2,325	-14,6	47,6
2,3255	-18,4	50,5
2,326	-19,2	47,5
2,3265	-17,4	40,2
2,327	-13,8	30,3
2,3275	-9,2	19,7
2,328	-5,1	11,8
2,3285	-3,1	9,8
2,329	-3,4	14,0
2,3295	-4,8	21,2
2,33	-6,1	27,8
2,3305	-6,7	32,1
2,331	-6,5	33,8
2,3315	-5,1	31,9
2,332	-2,1	25,1
2,3325	2,4	14,0
2,333	7,2	1,9
2,3335	10,8	-6,6
2,334	12,5	-8,7
2,3345	12,4	-4,9
2,335	10,5	2,9
2,3355	7,2	12,6
2,336	3,4	21,6
2,3365	1,1	26,3
2,337	1,2	24,7
2,3375	3,3	18,0
2,338	6,0	10,0
2,3385	8,0	4,2
2,339	9,2	1,6
2,3395	9,3	2,4
2,34	7,8	7,3
2,3405	3,9	16,3
2,341	-1,8	28,2
2,3415	-7,3	39,0
2,342	-10,3	45,0
2,3425	-10,1	44,8
2,343	-7,4	39,4
2,3435	-3,3	30,8
2,344	1,2	20,6
2,3445	5,1	11,9
2,345	6,9	8,8
2,3455	6,3	12,3
2,346	4,1	19,7
2,3465	2,1	27,2
2,347	1,4	32,1
2,3475	2,2	34,3
2,348	4,1	33,6
2,3485	7,5	28,8
2,349	12,2	19,5
2,3495	17,3	7,7
2,35	21,1	-2,6
2,3505	22,6	-8,2
2,351	22,3	-8,4
2,3515	20,8	-4,2
2,352	18,5	3,2
2,3525	15,4	12,0
2,353	12,3	18,9
2,3535	10,7	20,4
2,354	11,0	16,6
2,3545	12,6	10,5
2,355	14,4	5,8
2,3555	15,8	3,8
2,356	16,6	4,7
2,3565	16,1	8,8
2,357	13,8	17,1
2,3575	9,6	29,2
2,358	4,5	41,5
2,3585	-0,1	49,3
2,359	-3,1	50,0
2,3595	-4,5	44,4
2,36	-5,0	34,9
2,3605	-5,3	23,8
2,361	-5,9	13,3
2,3615	-7,7	7,4
2,362	-11,3	8,4
2,3625	-15,8	14,8
2,363	-19,7	22,5
2,3635	-21,9	28,0
2,364	-22,5	30,6
2,3645	-21,7	30,1
2,365	-19,3	25,5
2,3655	-15,0	16,5
2,366	-9,0	4,7
2,3665	-3,0	-5,8
2,367	1,3	-11,0
2,3675	2,9	-10,1
2,368	2,2	-4,7
2,3685	-0,3	3,1
2,369	-3,7	11,6
2,3695	-6,8	18,5
2,37	-7,8	21,0
2,3705	-6,0	18,0
2,371	-2,6	11,6
2,3715	0,9	5,1
2,372	3,1	0,9
2,3725	3,9	-0,3
2,373	3,6	2,1
2,3735	1,9	9,1
2,374	-1,0	20,5
2,3745	-4,4	34,3
2,375	-6,4	46,0
2,3755	-5,6	52,3
2,376	-1,8	52,2
2,3765	3,6	46,6
2,377	9,6	37,0
2,3775	15,3	25,7
2,378	19,3	16,5
2,3785	20,3	13,4
2,379	18,1	16,6
2,3795	14,4	22,8
2,38	11,2	28,3
2,3805	9,4	31,5
2,381	8,8	32,7
2,3815	9,8	31,0
2,382	12,9	25,5
2,3825	18,0	16,3
2,383	23,8	6,2
2,3835	28,1	-0,6
2,384	29,5	-1,8
2,3845	27,7	2,2
2,385	23,2	9,2
2,3855	16,7	17,6
2,386	9,3	25,1
2,3865	3,0	28,3
2,387	-0,8	25,2
2,3875	-2,2	17,7
2,388	-2,3	9,4
2,3885	-2,6	3,6
2,389	-3,7	0,6
2,3895	-6,0	0,3
2,39	-9,7	3,5
2,3905	-15,0	10,6
2,391	-21,2	20,4
2,3915	-26,8	29,5
2,392	-30,6	34,0
2,3925	-31,7	33,1
2,393	-30,3	27,9
2,3935	-26,6	20,2
2,394	-21,3	11,4
2,3945	-15,8	4,0
2,395	-12,0	1,4
2,3955	-11,0	4,6
2,396	-12,1	11,3
2,3965	-13,5	18,1
2,397	-13,8	23,0
2,3975	-12,7	26,3
2,398	-10,1	26,8
2,3985	-6,0	23,2
2,399	-0,6	14,6
2,3995	5,0	3,2
2,4	9,2	-6,3
2,4005	10,9	-10,4
2,401	10,1	-8,4
2,4015	7,2	-1,6
2,402	2,7	7,9
2,4025	-2,7	18,0
2,403	-6,9	25,5
2,4035	-7,8	27,6
2,404	-4,8	24,3
2,4045	0,5	18,3
2,405	5,5	12,9
2,4055	9,1	10,0
2,406	11,0	10,0
2,4065	11,2	13,4
2,407	9,3	20,7
2,4075	5,2	31,2
2,408	-0,1	42,1
2,4085	-4,6	49,0
2,409	-7,3	49,7
2,4095	-7,7	44,4
2,41	-6,2	35,4
2,4105	-3,1	24,9
2,411	0,7	15,4
2,4115	2,9	10,5
2,412	2,0	12,0
2,4125	-2,1	18,2
2,413	-7,9	24,8
2,4135	-13,2	28,8
2,414	-17,0	30,0
2,4145	-18,8	28,4
2,415	-18,2	23,3
2,4155	-14,9	14,3
2,416	-9,7	2,5
2,4165	-3,9	-8,0
2,417	0,7	-13,3
2,4175	3,5	-12,2
2,418	4,4	-6,0
2,4185	3,5	3,3
2,419	0,9	13,8
2,4195	-2,3	22,5
2,42	-4,4	25,7
2,4205	-4,3	22,3
2,421	-2,5	14,7
2,4215	-0,4	6,5
2,422	1,2	0,5
2,4225	2,1	-2,8
2,423	2,0	-2,2
2,4235	0,4	3,2
2,424	-3,0	13,7
2,4245	-7,3	26,6
2,425	-11,0	37,6
2,4255	-13,1	43,0
2,426	-13,2	42,1
2,4265	-11,6	36,3
2,427	-8,7	27,8
2,4275	-4,6	18,8
2,428	-0,7	12,7
2,4285	1,2	12,2
2,429	0,3	16,7
2,4295	-2,1	23,1
2,43	-4,2	27,8
2,4305	-5,0	30,3
2,431	-4,3	30,8
2,4315	-1,9	29,1
2,432	2,1	23,8
2,4325	7,3	14,5
2,433	12,4	3,9
2,4335	15,8	-3,9
2,434	16,3	-6,4
2,4345	14,0	-3,9
2,435	9,6	2,2
2,4355	3,8	10,8
2,436	-1,7	19,8
2,4365	-5,1	25,6
2,437	-5,2	25,4
2,4375	-2,9	19,8
2,438	0,4	12,3
2,4385	2,9	6,3
2,439	3,8	3,1
2,4395	2,7	2,9
2,44	-0,5	6,1
2,4405	-5,7	13,0
2,441	-11,8	22,5
2,4415	-16,8	31,4
2,442	-18,8	36,3
2,4425	-17,5	35,8
2,443	-13,5	30,8
2,4435	-8,2	22,7
2,444	-2,5	12,9
2,4445	2,3	4,5
2,445	4,5	1,3
2,4455	3,5	4,8
2,446	0,3	12,5
2,4465	-3,3	20,0
2,447	-6,0	24,7
2,4475	-7,4	26,4
2,448	-7,6	25,3
2,4485	-6,3	20,8
2,449	-3,4	12,5
2,4495	0,2	2,0
2,45	3,1	-6,8
2,4505	3,9	-10,7
2,451	2,1	-9,0
2,4515	-1,7	-3,3
2,452	-6,4	5,5
2,4525	-10,9	15,9
2,453	-13,9	24,7
2,4535	-14,1	28,0
2,454	-11,5	24,8
2,4545	-7,6	17,8
2,455	-3,8	10,8
2,4555	-1,1	6,0
2,456	0,4	4,2
2,4565	0,5	6,0
2,457	-0,8	12,2
2,4575	-3,4	22,2
2,458	-6,4	32,9
2,4585	-8,7	40,0
2,459	-9,2	41,3
2,4595	-7,8	37,0
2,46	-4,8	29,1
2,4605	-0,6	19,4
2,461	4,1	10,5
2,4615	7,5	6,2
2,462	7,9	8,8
2,4625	5,4	17,1
2,463	1,3	26,6
2,4635	-2,7	33,9
2,464	-6,0	37,8
2,4645	-8,5	37,9
2,465	-9,6	33,8
2,4655	-8,9	25,0
2,466	-6,3	12,8
2,4665	-3,0	1,1
2,467	-0,7	-6,0
2,4675	-0,2	-6,8
2,468	-1,6	-2,7
2,4685	-4,5	4,8
2,469	-8,3	13,5
2,4695	-12,0	20,9
2,47	-13,7	23,3
2,4705	-12,4	19,4
2,471	-8,7	11,8
2,4715	-4,1	4,5
2,472	-0,2	0,1
2,4725	2,2	-1,4
2,473	2,7	0,3
2,4735	0,9	5,7
2,474	-3,1	14,9
2,4745	-8,4	26,1
2,475	-13,2	35,3
2,4755	-15,9	39,3
2,476	-16,2	37,4
2,4765	-14,6	31,0
2,477	-11,7	22,4
2,4775	-8,3	13,4
2,478	-5,3	7,3
2,4785	-4,6	6,9
2,479	-6,3	12,0
2,4795	-9,3	19,6
2,48	-12,0	25,8
2,4805	-13,6	29,1
2,481	-13,4	29,8
2,4815	-11,0	27,5
2,482	-5,8	21,5
2,4825	2,0	11,8
2,483	10,7	1,4
2,4835	17,9	-5,4
2,484	22,4	-6,4
2,4845	24,0	-2,4
2,485	23,5	4,9
2,4855	21,2	13,9
2,486	17,8	22,8
2,4865	14,7	27,7
2,487	13,5	26,0
2,4875	14,1	18,8
2,488	15,3	9,6
2,4885	15,7	1,8
2,489	14,7	-3,2
2,4895	11,8	-4,4
2,49	6,3	-0,7
2,4905	-2,1	8,3
2,491	-12,0	20,5
2,4915	-21,1	32,0
2,492	-27,1	39,0
2,4925	-29,4	40,3
2,493	-28,2	37,1
2,4935	-24,7	30,8
2,494	-19,9	22,7
2,4945	-15,7	15,3
2,495	-13,8	12,3
2,4955	-15,2	15,7
2,496	-18,7	23,3
2,4965	-22,3	31,0
2,497	-24,5	35,8
2,4975	-25,0	37,3
2,498	-23,8	35,1
2,4985	-20,7	28,7
2,499	-15,6	18,2
2,4995	-9,1	5,3
2,5	-3,0	-5,7
2,5005	1,1	-11,6
2,501	2,8	-11,7
2,5015	2,3	-7,3
2,502	0,1	0,0
2,5025	-3,4	8,6
2,503	-6,5	15,4
2,5035	-6,9	17,6
2,504	-3,8	15,2
2,5045	1,8	10,7
2,505	7,7	6,9
2,5055	12,3	4,8
2,506	15,0	4,3
2,5065	15,3	6,4
2,507	13,0	12,4
2,5075	8,7	22,3
2,508	4,0	33,7
2,5085	0,6	42,0
2,509	-0,7	44,7
2,5095	0,0	41,6
2,51	1,9	34,5
2,5105	4,3	25,4
2,511	6,5	16,5
2,5115	7,1	10,8
2,512	4,8	10,5
2,5125	0,0	14,8
2,513	-5,8	20,3
2,5135	-10,5	24,2
2,514	-13,5	26,1
2,5145	-14,6	26,1
2,515	-13,4	23,5
2,5155	-9,9	17,4
2,516	-4,6	8,3
2,5165	0,6	-0,7
2,517	3,7	-6,0
2,5175	3,5	-6,2
2,518	0,6	-2,0
2,5185	-4,3	5,4
2,519	-10,3	14,8
2,5195	-16,3	23,3
2,52	-20,5	26,7
2,5205	-21,8	23,7
2,521	-20,3	16,8
2,5215	-17,5	9,9
2,522	-14,5	5,6
2,5225	-11,5	3,9
2,523	-9,1	5,1
2,5235	-8,0	10,2
2,524	-9,0	19,1
2,5245	-11,8	29,9
2,525	-14,8	38,3
2,5255	-16,3	41,4
2,526	-15,7	39,0
2,5265	-13,3	32,6
2,527	-9,7	24,2
2,5275	-5,4	15,6
2,528	-1,7	9,8
2,5285	-0,3	9,8
2,529	-1,6	15,5
2,5295	-4,9	23,6
2,53	-8,4	30,1
2,5305	-11,1	33,3
2,531	-12,5	33,9
2,5315	-12,3	31,6
2,532	-10,5	25,8
2,5325	-7,2	16,3
2,533	-3,4	5,6
2,5335	-0,5	-2,4
2,534	0,5	-5,3
2,5345	-0,3	-3,1
2,535	-2,8	2,9
2,5355	-6,2	11,4
2,536	-9,8	20,3
2,5365	-11,8	26,3
2,537	-10,8	26,5
2,5375	-6,9	21,7
2,538	-2,3	15,0
2,5385	1,1	9,4
2,539	2,7	6,0
2,5395	2,7	5,2
2,54	0,8	8,2
2,5405	-3,1	15,5
2,541	-8,7	26,2
2,5415	-14,3	36,5
2,542	-18,1	42,9
2,5425	-18,8	43,9
2,543	-16,5	40,0
2,5435	-12,5	32,5
2,544	-7,9	22,6
2,5445	-4,3	12,9
2,545	-3,3	7,8
2,5455	-5,3	9,2
2,546	-8,9	15,6
2,5465	-12,3	23,2
2,547	-14,0	28,8
2,5475	-14,1	31,6
2,548	-12,6	31,3
2,5485	-9,4	26,7
2,549	-4,6	17,7
2,5495	1,0	6,0
2,55	5,4	-4,1
2,5505	7,3	-9,1
2,551	6,3	-8,6
2,5515	3,2	-3,6
2,552	-1,3	4,1
2,5525	-6,2	12,9
2,553	-10,4	19,8
2,5535	-12,0	21,5
2,554	-10,5	17,9
2,5545	-7,1	11,7
2,555	-3,7	6,2
2,5555	-1,4	2,8
2,556	-0,9	1,2
2,5565	-2,3	2,6
2,557	-5,8	8,2
2,5575	-11,0	18,3
2,558	-16,5	29,8
2,5585	-20,6	38,4
2,559	-21,8	41,3
2,5595	-20,4	38,3
2,56	-17,1	31,2
2,5605	-13,0	21,6
2,561	-9,1	12,0
2,5615	-7,2	6,3
2,562	-8,4	7,0
2,5625	-12,0	13,3
2,563	-16,2	21,1
2,5635	-19,3	26,8
2,564	-20,4	30,0
2,5645	-19,9	31,0
2,565	-17,3	29,3
2,5655	-12,6	23,6
2,566	-6,6	14,1
2,5665	-1,0	3,8
2,567	2,5	-3,6
2,5675	3,4	-5,7
2,568	2,3	-3,2
2,5685	-0,2	2,7
2,569	-3,6	10,3
2,5695	-7,0	16,9
2,57	-8,9	19,1
2,5705	-8,3	15,4
2,571	-5,4	7,9
2,5715	-0,9	0,8
2,572	4,1	-3,0
2,5725	9,2	-2,9
2,573	13,3	0,9
2,5735	15,2	8,2
2,574	14,2	18,9
2,5745	11,0	31,0
2,575	7,5	40,4
2,5755	5,4	44,3
2,576	5,4	42,0
2,5765	7,0	35,6
2,577	9,7	27,0
2,5775	12,8	18,2
2,578	15,3	12,4
2,5785	15,7	12,8
2,579	13,5	18,9
2,5795	9,7	26,9
2,58	5,6	32,9
2,5805	2,2	35,6
2,581	-0,8	35,4
2,5815	-2,9	31,8
2,582	-3,4	24,0
2,5825	-1,8	12,3
2,583	1,1	-0,2
2,5835	3,7	-8,5
2,584	4,1	-10,5
2,5845	1,8	-6,8
2,585	-2,8	0,3
2,5855	-9,0	9,5
2,586	-15,3	18,9
2,5865	-19,1	25,3
2,587	-18,3	26,1
2,5875	-13,3	22,3
2,588	-6,2	17,3
2,5885	0,5	13,8
2,589	5,2	11,9
2,5895	7,1	11,3
2,59	5,9	13,4
2,5905	2,0	19,3
2,591	-3,8	28,6
2,5915	-9,3	37,6
2,592	-12,8	42,9
2,5925	-13,2	43,1
2,593	-10,9	39,2
2,5935	-6,7	32,3
2,594	-1,6	23,7
2,5945	2,8	15,2
2,595	4,9	10,7
2,5955	3,6	12,4
2,596	0,0	18,7
2,5965	-4,1	25,7
2,597	-7,4	30,7
2,5975	-9,7	33,3
2,598	-10,8	33,7
2,5985	-10,2	30,8
2,599	-7,7	24,0
2,5995	-3,8	14,3
2,6	-0,2	5,4
2,6005	1,3	0,5
2,601	0,3	0,4
2,6015	-2,7	4,3
2,602	-6,6	10,8
2,6025	-10,7	18,2
2,603	-13,5	23,8
2,6035	-13,5	24,4
2,604	-10,3	19,9
2,6045	-5,2	13,0
2,605	-0,2	6,7
2,6055	3,2	2,3
2,606	4,5	-0,0
2,6065	4,0	1,1
2,607	2,0	7,0
2,6075	-1,3	17,6
2,608	-5,0	29,7
2,6085	-7,9	38,5
2,609	-8,9	41,4
2,6095	-7,9	38,3
2,61	-5,2	31,3
2,6105	-1,4	22,0
2,611	2,7	12,8
2,6115	5,1	7,2
2,612	4,6	8,0
2,6125	1,2	13,9
2,613	-3,4	21,4
2,6135	-7,3	27,4
2,614	-9,6	31,3
2,6145	-10,3	33,0
2,615	-9,3	31,3
2,6155	-6,3	25,1
2,616	-1,4	15,2
2,6165	3,9	5,4
2,617	8,2	0,0
2,6175	9,9	0,6
2,618	8,8	5,9
2,6185	4,8	13,6
2,619	-1,4	21,6
2,6195	-8,1	27,6
2,62	-12,8	28,9
2,6205	-13,8	24,4
2,621	-11,9	16,6
2,6215	-9,0	9,2
2,622	-6,7	4,4
2,6225	-5,7	2,0
2,623	-6,6	1,8
2,6235	-9,8	4,9
2,624	-15,4	11,8
2,6245	-22,4	21,1
2,625	-28,8	28,7
2,6255	-32,5	31,4
2,626	-32,8	29,1
2,6265	-30,1	23,3
2,627	-25,2	15,3
2,6275	-18,9	6,9
2,628	-13,0	1,2
2,6285	-9,5	1,7
2,629	-8,8	8,8
2,6295	-9,7	19,0
2,63	-10,7	28,3
2,6305	-10,7	34,2
2,631	-9,6	36,5
2,6315	-7,4	34,8
2,632	-3,9	28,1
2,6325	0,8	16,9
2,633	5,9	4,1
2,6335	10,1	-5,5
2,634	12,4	-8,9
2,6345	12,5	-6,6
2,635	10,7	-0,2
2,6355	7,3	8,6
2,636	3,5	17,9
2,6365	0,7	24,4
2,637	0,3	25,2
2,6375	2,1	20,9
2,638	4,9	14,8
2,6385	7,3	10,1
2,639	8,9	7,5
2,6395	9,2	7,2
2,64	7,5	10,0
2,6405	3,3	16,6
2,641	-3,1	26,2
2,6415	-10,0	35,5
2,642	-15,3	40,8
2,6425	-18,1	40,7
2,643	-18,5	35,7
2,6435	-17,0	27,5
2,644	-14,2	17,7
2,6445	-10,9	9,0
2,645	-8,7	5,4
2,6455	-8,6	8,6
2,646	-10,0	16,6
2,6465	-11,7	25,4
2,647	-12,8	31,8
2,6475	-13,2	35,1
2,648	-12,8	34,8
2,6485	-11,3	29,9
2,649	-7,9	20,4
2,6495	-3,4	8,1
2,65	0,8	-2,9
2,6505	3,0	-8,9
2,651	2,7	-9,0
2,6515	0,6	-4,5
2,652	-2,5	3,1
2,6525	-6,0	12,1
2,653	-8,9	19,5
2,6535	-9,7	21,7
2,654	-8,0	17,7
2,6545	-5,1	9,7
2,655	-2,5	1,7
2,6555	-0,8	-4,2
2,656	0,4	-7,2
2,6565	1,3	-6,2
2,657	1,2	-0,3
2,6575	-0,2	10,2
2,658	-2,0	22,6
2,6585	-2,9	32,3
2,659	-1,9	36,7
2,6595	0,8	35,3
2,66	4,7	29,9
2,6605	9,4	22,3
2,661	14,6	14,7
2,6615	18,7	11,0
2,662	20,1	13,9
2,6625	18,6	22,2
2,663	15,0	31,5
2,6635	10,8	37,8
2,664	7,1	40,1
2,6645	4,2	38,7
2,665	2,7	33,4
2,6655	3,0	24,5
2,666	5,2	13,4
2,6665	8,3	3,7
2,667	10,7	-1,2
2,6675	11,1	-0,4
2,668	9,1	4,2
2,6685	4,9	10,5
2,669	-0,8	17,2
2,6695	-6,6	22,3
2,67	-10,3	23,4
2,6705	-10,8	19,2
2,671	-8,4	12,0
2,6715	-4,8	5,3
2,672	-1,7	1,6
2,6725	0,7	0,9
2,673	1,9	3,3
2,6735	1,8	9,8
2,674	-0,1	20,3
2,6745	-3,3	32,9
2,675	-6,5	43,0
2,6755	-8,6	47,0
2,676	-8,7	44,8
2,6765	-7,1	38,4
2,677	-4,1	30,0
2,6775	-0,6	21,3
2,678	1,9	14,8
2,6785	1,5	13,5
2,679	-2,2	17,7
2,6795	-7,8	24,4
2,68	-12,8	30,3
2,6805	-15,9	33,9
2,681	-16,9	35,7
2,6815	-16,1	34,6
2,682	-13,5	29,1
2,6825	-9,0	18,7
2,683	-3,8	5,9
2,6835	0,1	-4,8
2,684	1,3	-9,9
2,6845	-0,2	-9,2
2,685	-3,2	-4,1
2,6855	-6,6	3,8
2,686	-9,8	12,5
2,6865	-11,4	18,6
2,687	-10,6	19,2
2,6875	-7,3	14,7
2,688	-3,1	8,3
2,6885	0,6	3,4
2,689	3,1	1,1
2,6895	4,5	1,5
2,69	4,3	5,3
2,6905	1,8	13,0
2,691	-2,8	23,8
2,6915	-8,1	33,7
2,692	-12,3	38,9
2,6925	-14,2	38,1
2,693	-13,7	32,4
2,6935	-11,1	23,8
2,694	-7,4	13,7
2,6945	-3,6	4,7
2,695	-1,3	0,4
2,6955	-1,8	3,2
2,696	-4,5	11,6
2,6965	-7,8	21,7
2,697	-10,1	30,1
2,6975	-11,1	35,7
2,698	-11,3	37,8
2,6985	-10,5	35,4
2,699	-8,7	27,8
2,6995	-5,6	16,6
2,7	-2,3	6,0
2,7005	-0,5	-0,3
2,701	-0,8	-1,0
2,7015	-2,9	2,7
2,702	-6,2	9,4
2,7025	-10,2	17,4
2,703	-13,6	23,7
2,7035	-15,3	24,8
2,704	-14,7	20,1
2,7045	-13,2	12,2
2,705	-12,2	4,8
2,7055	-12,3	-0,3
2,706	-13,4	-2,9
2,7065	-15,3	-2,1
2,707	-18,4	3,1
2,7075	-22,7	12,9
2,708	-27,0	24,4
2,7085	-29,4	33,3
2,709	-28,8	36,8
2,7095	-25,2	34,6
2,71	-19,8	28,8
2,7105	-13,7	20,7
2,711	-8,0	12,0
2,7115	-4,2	5,6
2,712	-3,4	4,7
2,7125	-5,3	9,4
2,713	-8,3	16,9
2,7135	-10,7	24,0
2,714	-11,7	29,3
2,7145	-11,0	32,3
2,715	-8,6	31,6
2,7155	-4,1	26,0
2,716	2,0	15,8
2,7165	8,2	4,4
2,717	12,6	-3,9
2,7175	14,2	-6,9
2,718	13,2	-4,8
2,7185	10,3	1,1
2,719	6,5	9,8
2,7195	2,8	18,6
2,72	0,9	23,7
2,7205	1,6	22,6
2,721	4,4	17,0
2,7215	7,6	10,8
2,722	9,9	6,8
2,7225	11,1	5,2
2,723	10,8	6,3
2,7235	8,4	10,7
2,724	3,1	18,8
2,7245	-4,5	29,4
2,725	-12,5	38,5
2,7255	-19,0	42,6
2,726	-22,7	40,9
2,7265	-23,6	34,8
2,727	-22,1	25,9
2,7275	-19,1	15,8
2,728	-16,2	7,5
2,7285	-15,1	4,8
2,729	-16,0	8,8
2,7295	-17,8	17,1
2,73	-19,3	25,7
2,7305	-19,7	32,2
2,731	-19,4	35,8
2,7315	-18,2	35,6
2,732	-15,4	30,4
2,7325	-11,2	20,3
2,733	-6,6	7,5
2,7335	-3,2	-3,3
2,734	-2,1	-8,9
2,7345	-2,9	-8,7
2,735	-5,0	-3,6
2,7355	-7,6	5,1
2,736	-10,2	15,3
2,7365	-12,0	22,9
2,737	-11,9	24,5
2,7375	-9,7	19,9
2,738	-6,6	12,3
2,7385	-3,7	5,5
2,739	-1,7	1,0
2,7395	-0,7	-0,9
2,74	-1,3	0,9
2,7405	-3,6	7,3
2,741	-7,3	17,8
2,7415	-11,3	29,0
2,742	-14,2	36,6
2,7425	-14,8	38,7
2,743	-13,2	35,6
2,7435	-9,9	29,1
2,744	-5,7	20,8
2,7445	-1,3	12,9
2,745	1,7	8,9
2,7455	2,2	10,6
2,746	0,5	16,2
2,7465	-1,8	22,2
2,747	-3,4	26,0
2,7475	-3,9	27,3
2,748	-3,1	26,3
2,7485	-0,7	22,0
2,749	3,4	13,9
2,7495	8,7	2,9
2,75	13,3	-7,7
2,7505	15,7	-14,5
2,751	15,3	-16,0
2,7515	12,9	-12,2
2,752	9,8	-3,4
2,7525	7,0	8,9
2,753	5,1	21,1
2,7535	5,1	28,0
2,754	7,0	27,7
2,7545	9,9	22,3
2,755	12,6	16,3
2,7555	14,3	12,5
2,756	14,7	11,2
2,7565	13,5	12,5
2,757	10,2	17,3
2,7575	4,7	25,6
2,758	-2,0	35,1
2,7585	-8,1	41,7
2,759	-12,2	42,8
2,7595	-13,9	38,7
2,76	-13,7	31,3
2,7605	-12,2	22,0
2,761	-10,4	12,5
2,7615	-9,5	6,0
2,762	-10,4	5,5
2,7625	-12,7	10,5
2,763	-15,4	17,3
2,7635	-17,3	22,8
2,764	-17,8	25,8
2,7645	-17,4	26,7
2,765	-15,9	24,3
2,7655	-13,0	17,7
2,766	-8,4	7,4
2,7665	-3,0	-3,3
2,767	1,9	-10,3
2,7675	5,3	-11,6
2,768	6,8	-7,9
2,7685	6,9	-0,9
2,769	5,8	7,7
2,7695	4,3	15,6
2,77	3,8	19,4
2,7705	5,4	17,3
2,771	8,3	11,1
2,7715	11,2	4,5
2,772	12,7	0,4
2,7725	12,8	-0,9
2,773	11,7	0,4
2,7735	9,0	5,0
2,774	4,5	13,2
2,7745	-1,3	23,7
2,775	-7,0	33,2
2,7755	-11,0	38,8
2,776	-12,8	39,4
2,7765	-12,6	35,7
2,777	-11,0	28,5
2,7775	-8,7	19,3
2,778	-6,9	11,1
2,7785	-7,2	8,0
2,779	-10,0	11,0
2,7795	-14,1	17,2
2,78	-17,7	22,9
2,7805	-19,7	25,9
2,781	-20,2	26,1
2,7815	-19,3	23,2
2,782	-16,8	16,4
2,7825	-12,7	5,7
2,783	-7,7	-6,6
2,7835	-3,8	-16,3
2,784	-2,3	-20,8
2,7845	-3,6	-19,6
2,785	-6,6	-13,8
2,7855	-10,4	-4,2
2,786	-13,9	7,2
2,7865	-15,8	16,7
2,787	-15,1	20,6
2,7875	-12,1	18,4
2,788	-8,1	13,0
2,7885	-5,0	7,8
2,789	-3,4	4,3
2,7895	-3,2	3,0
2,79	-4,4	5,0
2,7905	-7,3	11,5
2,791	-11,3	21,9
2,7915	-15,4	33,1
2,792	-17,8	40,7
2,7925	-17,7	42,5
2,793	-15,5	39,1
2,7935	-11,6	32,2
2,794	-6,6	23,3
2,7945	-1,8	14,8
2,795	1,1	10,6
2,7955	0,9	12,8
2,796	-1,8	19,6
2,7965	-5,5	26,9
2,797	-8,4	31,6
2,7975	-10,2	33,2
2,798	-10,7	31,7
2,7985	-9,3	26,4
2,799	-5,6	17,6
2,7995	0,1	6,3
2,8	6,1	-3,8
2,8005	10,2	-9,3
2,801	11,7	-9,3
2,8015	10,8	-4,9
2,802	8,2	2,4
2,8025	4,4	10,9
2,803	0,8	18,3
2,8035	-1,0	21,2
2,804	-0,1	18,8
2,8045	2,6	12,9
2,805	5,1	6,7
2,8055	6,2	1,9
2,806	5,8	-1,0
2,8065	4,0	-0,8
2,807	0,7	4,5
2,8075	-4,0	15,4
2,808	-9,4	29,5
2,8085	-13,8	41,4
2,809	-16,2	47,3
2,8095	-16,6	46,5
2,81	-15,3	40,1
2,8105	-12,3	30,3
2,811	-8,2	19,4
2,8115	-4,8	11,6
2,812	-3,8	10,2
2,8125	-5,6	14,9
2,813	-8,7	22,7
2,8135	-11,1	29,5
2,814	-12,1	33,8
2,8145	-11,6	35,4
2,815	-9,3	33,2
2,8155	-5,1	26,6
2,816	0,8	16,5
2,8165	7,0	6,2
2,817	11,5	-0,4
2,8175	13,4	-1,5
2,818	13,0	2,3
2,8185	10,8	9,2
2,819	7,2	17,6
2,8195	2,9	25,5
2,82	-0,4	29,5
2,8205	-1,7	27,5
2,821	-0,8	20,4
2,8215	1,0	11,6
2,822	2,4	4,2
2,8225	2,6	-1,0
2,823	1,3	-3,1
2,8235	-1,8	-0,6
2,824	-6,5	7,5
2,8245	-11,9	19,8
2,825	-16,4	31,7
2,8255	-18,6	38,7
2,826	-17,9	39,7
2,8265	-14,8	36,1
2,827	-10,1	29,3
2,8275	-4,5	20,5
2,828	0,5	12,3
2,8285	2,8	8,6
2,829	1,8	10,7
2,8295	-1,4	16,1
2,83	-4,8	21,3
2,8305	-6,7	24,4
2,831	-6,9	25,6
2,8315	-5,5	24,3
2,832	-2,2	19,6
2,8325	3,1	11,2
2,833	9,3	1,7
2,8335	14,2	-5,1
2,834	16,5	-6,4
2,8345	15,8	-2,9
2,835	12,5	3,4
2,8355	7,1	10,9
2,836	0,2	18,0
2,8365	-6,4	22,0
2,837	-10,6	20,8
2,8375	-11,7	15,1
2,838	-10,4	8,0
2,8385	-8,4	2,8
2,839	-6,6	0,5
2,8395	-5,4	1,2
2,84	-5,5	5,4
2,8405	-7,6	13,6
2,841	-11,8	24,4
2,8415	-17,3	34,6
2,842	-21,8	40,3
2,8425	-23,9	40,2
2,843	-22,7	35,4
2,8435	-18,6	28,2
2,844	-12,7	20,1
2,8445	-6,9	12,6
2,845	-3,3	8,7
2,8455	-3,4	10,0
2,846	-6,2	15,5
2,8465	-9,5	21,8
2,847	-11,5	26,6
2,8475	-11,7	29,5
2,848	-10,7	30,3
2,8485	-8,2	27,8
2,849	-3,9	21,0
2,8495	1,8	11,1
2,85	7,2	1,8
2,8505	10,8	-3,7
2,851	11,8	-4,0
2,8515	10,9	-0,3
2,852	9,0	6,2
2,8525	6,7	14,1
2,853	5,0	20,8
2,8535	5,1	22,9
2,854	7,5	19,0
2,8545	11,3	11,4
2,855	15,0	4,0
2,8555	17,8	-0,6
2,856	19,7	-2,2
2,8565	20,4	-0,1
2,857	19,5	6,3
2,8575	16,8	17,1
2,858	12,6	30,1
2,8585	8,6	40,9
2,859	5,6	46,2
2,8595	4,2	45,7
2,86	4,0	40,7
2,8605	5,0	32,8
2,861	6,5	23,8
2,8615	6,8	16,7
2,862	4,5	14,6
2,8625	-0,6	17,6
2,863	-6,9	22,7
2,8635	-12,8	26,2
2,864	-17,2	26,9
2,8645	-19,8	25,2
2,865	-20,3	20,8
2,8655	-17,9	13,3
2,866	-13,2	3,0
2,8665	-7,5	-7,2
2,867	-2,8	-13,6
2,8675	-0,1	-13,9
2,868	0,5	-9,0
2,8685	-0,8	-0,7
2,869	-3,7	9,2
2,8695	-7,2	18,3
2,87	-9,9	22,8
2,8705	-10,4	20,6
2,871	-9,0	13,1
2,8715	-6,8	4,6
2,872	-5,2	-1,6
2,8725	-4,6	-4,9
2,873	-5,4	-5,0
2,8735	-7,4	-0,9
2,874	-10,2	8,4
2,8745	-13,3	21,8
2,875	-15,9	35,1
2,8755	-17,1	43,3
2,876	-16,6	44,3
2,8765	-14,7	39,1
2,877	-11,7	29,6
2,8775	-7,7	18,1
2,878	-3,8	8,0
2,8785	-1,3	3,5
2,879	-1,2	5,9
2,8795	-2,8	12,4
2,88	-5,0	19,0
2,8805	-7,1	23,2
2,881	-8,6	24,9
2,8815	-9,0	23,7
2,882	-7,2	18,9
2,8825	-3,2	10,8
2,883	2,0	1,7
2,8835	6,3	-4,7
2,884	7,8	-6,2
2,8845	6,4	-3,3
2,885	2,8	2,2
2,8855	-2,0	9,2
2,886	-7,1	16,6
2,8865	-10,8	21,7
2,887	-11,6	21,6
2,8875	-9,6	16,4
2,888	-6,3	9,0
2,8885	-3,3	3,2
2,889	-1,1	0,5
2,8895	0,3	0,8
2,89	0,9	4,9
2,8905	0,5	13,5
2,891	-0,9	26,4
2,8915	-2,5	40,2
2,892	-2,9	49,9
2,8925	-1,6	53,0
2,893	1,1	49,4
2,8935	4,7	41,1
2,894	8,7	29,9
2,8945	12,5	18,6
2,895	14,6	11,5
2,8955	13,8	11,7
2,896	10,3	17,6
2,8965	5,3	24,6
2,897	0,3	28,8
2,8975	-3,9	29,2
2,898	-6,6	26,5
2,8985	-6,9	20,8
2,899	-4,5	12,3
2,8995	-0,2	2,3
2,9	4,1	-6,1
2,9005	6,5	-9,8
2,901	6,6	-8,0
2,9015	4,5	-2,1
2,902	0,9	6,2
2,9025	-4,2	15,2
2,903	-9,6	22,4
2,9035	-13,3	24,5
2,904	-13,8	20,6
2,9045	-11,6	13,4
2,905	-8,1	6,6
2,9055	-4,8	2,8
2,906	-2,2	1,9
2,9065	-1,2	4,1
2,907	-2,4	10,3
2,9075	-5,8	20,3
2,908	-10,7	32,4
2,9085	-15,2	42,5
2,909	-17,8	47,2
2,9095	-18,3	46,1
2,91	-16,6	40,3
2,9105	-13,4	31,4
2,911	-9,4	21,6
2,9115	-6,1	14,4
2,912	-5,1	13,5
2,9125	-6,8	18,6
2,913	-9,9	26,1
2,9135	-12,6	31,9
2,914	-14,1	34,4
2,9145	-14,4	33,7
2,915	-13,0	29,6
2,9155	-9,3	22,1
2,916	-3,1	12,1
2,9165	4,0	2,4
2,917	9,1	-3,9
2,9175	10,3	-5,6
2,918	7,8	-3,8
2,9185	2,8	0,8
2,919	-3,3	7,8
2,9195	-8,9	15,9
2,92	-12,2	21,8
2,9205	-12,0	22,2
2,921	-9,1	17,7
2,9215	-5,1	11,7
2,922	-1,6	7,4
2,9225	0,8	5,4
2,923	1,7	5,8
2,9235	0,6	9,5
2,924	-2,6	17,1
2,9245	-7,6	28,2
2,925	-12,6	39,0
2,9255	-16,2	45,3
2,926	-17,7	45,3
2,9265	-17,0	40,0
2,927	-14,5	31,3
2,9275	-10,3	21,2
2,928	-5,5	12,7
2,9285	-1,8	9,7
2,929	-0,2	13,7
2,9295	-0,3	21,3
2,93	-1,4	28,1
2,9305	-2,2	31,5
2,931	-2,5	32,0
2,9315	-1,8	29,9
2,932	0,4	24,5
2,9325	4,5	15,7
2,933	9,8	5,7
2,9335	14,6	-1,7
2,934	17,3	-3,5
2,9345	17,5	-0,1
2,935	15,5	6,9
2,9355	12,2	15,9
2,936	7,9	25,2
2,9365	4,0	31,6
2,937	1,8	31,7
2,9375	1,8	25,6
2,938	3,1	16,7
2,9385	4,5	9,0
2,939	5,5	4,7
2,9395	5,7	4,1
2,94	4,4	7,4
2,9405	1,0	14,8
2,941	-4,7	25,3
2,9415	-11,4	35,8
2,942	-17,0	42,3
2,9425	-20,1	43,3
2,943	-20,7	39,9
2,9435	-19,4	33,9
2,944	-16,6	26,8
2,9445	-13,0	20,2
2,945	-9,8	17,3
2,9455	-8,6	20,3
2,946	-9,4	27,2
2,9465	-11,2	34,4
2,947	-12,6	38,7
2,9475	-13,2	39,9
2,948	-12,6	38,4
2,9485	-10,1	33,3
2,949	-5,4	24,2
2,9495	1,1	11,9
2,95	7,7	0,7
2,9505	12,4	-5,8
2,951	14,7	-6,4
2,9515	14,7	-2,2
2,952	13,3	5,0
2,9525	11,0	14,0
2,953	8,8	22,1
2,9535	8,1	25,9
2,954	9,5	23,9
2,9545	12,0	18,0
2,955	14,3	11,6
2,9555	15,4	6,8
2,956	15,8	3,9
2,9565	15,0	3,3
2,957	12,6	6,4
2,9575	8,1	13,9
2,958	2,5	24,4
2,9585	-2,4	33,6
2,959	-5,0	38,3
2,9595	-5,1	37,9
2,96	-3,2	33,5
2,9605	-0,2	26,2
2,961	3,3	17,8
2,9615	6,0	11,5
2,962	6,3	11,1
2,9625	3,6	16,3
2,963	-0,8	23,9
2,9635	-5,2	29,7
2,964	-8,3	32,5
2,9645	-9,6	33,0
2,965	-8,9	30,7
2,9655	-5,6	25,1
2,966	0,2	16,3
2,9665	7,0	6,8
2,967	12,3	0,6
2,9675	14,7	-0,5
2,968	14,2	2,9
2,9685	11,5	9,2
2,969	7,2	16,9
2,9695	2,2	24,4
2,97	-1,4	28,5
2,9705	-2,2	26,6
2,971	-0,5	19,8
2,9715	1,9	11,5
2,972	3,6	4,8
2,9725	4,3	0,7
2,973	3,7	-0,3
2,9735	1,1	2,8
2,974	-4,2	10,0
2,9745	-11,9	20,1
2,975	-20,1	29,4
2,9755	-26,3	34,2
2,976	-29,1	33,4
2,9765	-28,8	28,7
2,977	-26,0	21,9
2,9775	-21,6	14,5
2,978	-16,7	8,7
2,9785	-13,4	7,7
2,979	-12,9	12,7
2,9795	-14,7	21,0
2,98	-16,8	28,8
2,9805	-17,9	33,7
2,981	-17,9	35,7
2,9815	-16,7	34,4
2,982	-14,2	29,1
2,9825	-10,1	19,5
2,983	-4,9	7,5
2,9835	-0,5	-2,6
2,984	1,8	-7,9
2,9845	1,8	-8,1
2,985	0,3	-4,2
2,9855	-2,0	2,6
2,986	-4,2	10,8
2,9865	-5,1	17,4
2,987	-3,4	18,8
2,9875	0,8	14,7
2,988	5,7	8,1
2,9885	9,7	2,7
2,989	12,0	-0,2
2,9895	12,3	-0,8
2,99	10,1	1,6
2,9905	5,4	7,7
2,991	-1,4	17,3
2,9915	-8,5	27,8
2,992	-13,8	35,2
2,9925	-16,2	37,6
2,993	-15,3	35,6
2,9935	-11,9	30,8
2,994	-6,7	24,5
2,9945	-1,0	18,2
2,995	3,3	14,8
2,9955	4,3	16,8
2,996	2,3	23,1
2,9965	-1,1	30,2
2,997	-4,2	35,4
2,9975	-5,9	38,3
2,998	-6,0	39,0
2,9985	-4,3	36,2
2,999	-0,7	28,1
2,9995	4,0	15,7
3	8,5	3,0
3,0005	11,4	-5,3
3,001	12,2	-7,2
3,0015	11,2	-3,8
3,002	8,8	3,3
3,0025	5,3	12,4
3,003	1,3	20,6
3,0035	-1,3	24,5
3,004	-1,8	22,4
3,0045	-0,3	16,2
3,005	1,9	9,5
3,0055	4,0	4,4
3,006	5,9	1,6
3,0065	6,9	1,6
3,007	6,4	5,8
3,0075	4,0	14,5
3,008	-0,1	25,5
3,0085	-4,3	34,5
3,009	-6,9	38,3
3,0095	-7,2	37,0
3,01	-5,4	32,3
3,0105	-2,0	25,8
3,011	2,0	18,5
3,0115	4,8	12,7
3,012	5,0	11,8
3,0125	2,2	16,1
3,013	-2,0	23,2
3,0135	-5,6	29,4
3,014	-7,5	33,3
3,0145	-7,7	35,0
3,015	-6,2	33,8
3,0155	-2,8	28,9
3,016	2,3	20,0
3,0165	7,8	9,5
3,017	11,9	1,7
3,0175	13,6	-1,2
3,018	13,2	0,6
3,0185	11,0	5,4
3,019	7,7	11,9
3,0195	4,0	18,7
3,02	1,7	22,8
3,0205	2,6	21,9
3,021	6,8	17,2
3,0215	12,8	11,9
3,022	18,8	8,8
3,0225	23,6	7,8
3,023	26,2	8,8
3,0235	26,0	12,8
3,024	22,5	20,8
3,0245	16,5	32,2
3,025	10,1	43,2
3,0255	5,6	49,4
3,026	4,0	48,8
3,0265	5,1	42,3
3,027	7,5	31,5
3,0275	10,3	18,5
3,028	12,1	6,8
3,0285	11,8	0,8
3,029	8,9	2,8
3,0295	4,2	10,4
3,03	-0,8	18,9
3,0305	-5,1	25,6
3,031	-8,3	29,8
3,0315	-10,3	30,8
3,032	-11,1	27,0
3,0325	-10,4	17,6
3,033	-8,7	4,7
3,0335	-6,9	-6,3
3,034	-6,0	-10,9
3,0345	-5,9	-8,6
3,035	-6,3	-1,3
3,0355	-7,2	8,4
3,036	-8,8	17,9
3,0365	-10,2	24,1
3,037	-9,8	24,2
3,0375	-6,7	18,8
3,038	-1,6	11,5
3,0385	4,0	6,0
3,039	8,8	3,4
3,0395	12,2	3,3
3,04	13,5	6,0
3,0405	12,2	12,3
3,041	8,2	22,3
3,0415	3,0	33,5
3,042	-1,6	41,8
3,0425	-4,4	44,4
3,043	-5,2	41,5
3,0435	-4,7	34,7
3,044	-3,3	25,7
3,0445	-1,5	16,8
3,045	-0,8	11,3
3,0455	-2,5	11,7
3,046	-6,3	17,0
3,0465	-10,8	23,8
3,047	-14,0	29,2
3,0475	-15,2	32,3
3,048	-14,5	32,8
3,0485	-12,3	29,1
3,049	-8,7	20,3
3,0495	-4,2	7,5
3,05	0,6	-5,2
3,0505	4,2	-13,1
3,051	6,0	-14,7
3,0515	5,9	-11,0
3,052	4,2	-3,8
3,0525	1,1	5,2
3,053	-2,3	13,4
3,0535	-4,4	17,2
3,054	-3,4	15,0
3,0545	0,2	9,5
3,055	4,7	4,6
3,0555	8,5	3,1
3,056	10,5	4,3
3,0565	9,8	7,4
3,057	5,4	12,5
3,0575	-2,0	19,8
3,058	-10,7	28,9
3,0585	-18,2	36,6
3,059	-23,0	40,0
3,0595	-25,0	38,5
3,06	-24,8	33,1
3,0605	-22,9	25,3
3,061	-19,9	16,4
3,0615	-17,1	9,4
3,062	-16,4	7,8
3,0625	-18,3	12,0
3,063	-21,7	19,2
3,0635	-24,6	25,8
3,064	-25,8	29,9
3,0645	-25,1	31,6
3,065	-22,4	30,1
3,0655	-17,6	24,5
3,066	-11,0	14,7
3,0665	-3,8	3,2
3,067	2,3	-5,4
3,0675	6,1	-8,7
3,068	7,6	-6,6
3,0685	7,1	-0,4
3,069	5,1	8,2
3,0695	2,4	17,1
3,07	0,5	22,5
3,0705	1,3	21,8
3,071	4,7	16,3
3,0715	9,2	9,6
3,072	13,4	5,1
3,0725	16,4	3,8
3,073	18,0	5,3
3,0735	17,6	10,3
3,074	14,4	18,9
3,0745	8,8	29,9
3,075	2,4	40,2
3,0755	-2,8	45,7
3,076	-6,0	44,6
3,0765	-7,3	37,9
3,077	-7,1	27,8
3,0775	-5,5	16,7
3,078	-3,4	7,5
3,0785	-2,4	3,7
3,079	-3,7	6,7
3,0795	-6,6	14,2
3,08	-9,7	22,3
3,0805	-11,6	28,2
3,081	-12,2	31,3
3,0815	-11,4	31,2
3,082	-9,2	26,6
3,0825	-5,7	17,3
3,083	-1,5	5,1
3,0835	2,2	-5,7
3,084	4,5	-11,3
3,0845	5,4	-10,7
3,085	5,2	-5,3
3,0855	4,2	3,1
3,086	2,3	12,8
3,0865	0,7	20,8
3,087	0,8	23,5
3,0875	2,8	20,0
3,088	5,7	13,0
3,0885	8,1	6,3
3,089	9,3	2,2
3,0895	9,7	1,1
3,09	9,0	3,5
3,0905	6,8	9,9
3,091	2,9	19,7
3,0915	-1,7	30,0
3,092	-5,3	36,7
3,0925	-6,6	37,6
3,093	-5,3	33,5
3,0935	-2,0	26,3
3,094	2,5	17,9
3,0945	7,2	10,1
3,095	10,1	6,0
3,0955	9,8	8,0
3,096	6,6	14,8
3,0965	2,6	22,8
3,097	-0,4	28,5
3,0975	-1,8	31,0
3,098	-1,5	31,0
3,0985	0,8	28,6
3,099	5,4	23,3
3,0995	11,7	14,9
3,1	17,6	5,6
3,1005	21,2	-1,2
3,101	21,6	-3,7
3,1015	18,9	-2,3
3,102	14,2	1,9
3,1025	8,0	8,3
3,103	1,7	15,3
3,1035	-3,0	19,6
3,104	-4,8	18,7
3,1045	-4,2	13,3
3,105	-2,6	6,5
3,1055	-1,3	1,2
3,106	-0,9	-1,7
3,1065	-1,7	-1,0
3,107	-4,1	4,4
3,1075	-8,0	14,7
3,108	-12,7	27,8
3,1085	-16,4	39,2
3,109	-18,0	45,3
3,1095	-16,9	44,9
3,11	-13,8	39,5
3,1105	-9,7	30,8
3,111	-5,2	20,9
3,1115	-1,6	13,0
3,112	-0,4	10,5
3,1125	-1,6	14,2
3,113	-4,0	21,3
3,1135	-6,1	27,3
3,114	-7,5	29,8
3,1145	-8,8	28,6
3,115	-9,9	23,8
3,1155	-9,8	15,4
3,116	-7,9	4,0
3,1165	-4,3	-7,9
3,117	-1,0	-16,4
3,1175	0,3	-19,6
3,118	-0,8	-17,8
3,1185	-3,9	-12,5
3,119	-8,3	-4,8
3,1195	-12,6	3,6
3,12	-15,1	9,6
3,1205	-14,4	10,9
3,121	-10,8	8,2
3,1215	-5,8	4,2
3,122	-1,2	1,7
3,1225	2,0	0,7
3,123	3,2	1,1
3,1235	2,0	3,9
3,124	-1,6	10,5
3,1245	-7,0	20,8
3,125	-12,4	31,5
3,1255	-16,2	38,2
3,126	-17,2	38,9
3,1265	-15,4	34,4
3,127	-11,3	26,6
3,1275	-5,6	17,1
3,128	0,3	8,5
3,1285	4,1	3,9
3,129	4,2	5,0
3,1295	1,2	9,8
3,13	-2,6	14,7
3,1305	-5,1	16,9
3,131	-5,7	16,8
3,1315	-4,4	14,6
3,132	-1,2	10,2
3,1325	3,8	3,3
3,133	10,1	-4,9
3,1335	15,6	-11,3
3,134	18,7	-13,3
3,1345	18,6	-10,5
3,135	15,9	-4,0
3,1355	11,4	5,1
3,136	6,1	15,5
3,1365	1,8	24,3
3,137	-0,2	28,2
3,1375	0,4	26,0
3,138	2,3	19,9
3,1385	3,5	13,2
3,139	3,6	7,9
3,1395	2,8	4,9
3,14	1,4	5,3
3,1405	-1,1	10,2
3,141	-5,0	19,6
3,1415	-9,6	30,6
3,142	-13,0	39,1
3,1425	-14,0	42,4
3,143	-12,3	40,3
3,1435	-8,8	34,3
3,144	-4,3	25,5
3,1445	0,0	16,0
3,145	2,4	9,1
3,1455	1,8	8,3
3,146	-1,6	13,0
3,1465	-5,8	19,8
3,147	-8,9	25,1
3,1475	-10,0	28,0
3,148	-9,3	28,9
3,1485	-7,1	26,9
3,149	-3,2	20,8
3,1495	2,1	10,3
3,15	7,1	-1,7
3,1505	10,2	-10,7
3,151	10,6	-14,3
3,1515	9,0	-12,2
3,152	6,1	-5,5
3,1525	2,4	4,2
3,153	-1,5	14,1
3,1535	-3,8	20,3
3,154	-3,2	20,3
3,1545	-0,2	15,6
3,155	3,1	9,2
3,1555	5,0	3,5
3,156	5,2	-0,8
3,1565	3,8	-2,5
3,157	0,6	-0,1
3,1575	-4,4	6,9
3,158	-10,8	16,7
3,1585	-16,2	25,5
3,159	-18,8	30,0
3,1595	-17,6	29,9
3,16	-13,1	26,5
3,1605	-6,3	21,3
3,161	1,6	15,3
3,1615	8,3	10,8
3,162	11,9	10,7
3,1625	11,8	15,6
3,163	9,2	22,5
3,1635	6,2	28,1
3,164	4,0	30,8
3,1645	2,6	30,8
3,165	2,3	28,1
3,1655	3,2	21,5
3,166	5,2	11,0
3,1665	7,5	-0,9
3,167	8,5	-10,0
3,1675	7,3	-13,6
3,168	4,4	-11,8
3,1685	0,5	-6,4
3,169	-3,8	1,1
3,1695	-8,2	8,9
3,17	-11,9	14,0
3,1705	-13,7	13,5
3,171	-13,0	8,0
3,1715	-10,5	0,8
3,172	-7,2	-4,1
3,1725	-3,6	-5,6
3,173	-0,3	-4,0
3,1735	1,6	0,8
3,174	0,8	9,1
3,1745	-2,5	20,0
3,175	-7,0	30,5
3,1755	-10,6	36,6
3,176	-11,9	36,5
3,1765	-11,0	31,3
3,177	-8,4	23,0
3,1775	-4,5	14,0
3,178	-0,2	6,9
3,1785	3,0	5,3
3,179	3,8	10,5
3,1795	2,4	19,8
3,18	-0,2	28,6
3,1805	-2,9	33,8
3,181	-5,5	35,3
3,1815	-7,6	33,4
3,182	-8,6	27,5
3,1825	-7,6	17,0
3,183	-4,9	3,3
3,1835	-2,0	-9,5
3,184	-0,4	-17,8
3,1845	-0,9	-20,0
3,185	-2,8	-16,8
3,1855	-5,3	-9,4
3,186	-7,6	0,4
3,1865	-8,8	9,0
3,187	-7,3	12,6
3,1875	-2,5	10,4
3,188	4,5	5,3
3,1885	11,4	0,6
3,189	16,7	-1,9
3,1895	19,8	-2,4
3,19	20,4	-0,5
3,1905	18,3	5,1
3,191	13,6	14,7
3,1915	8,0	25,7
3,192	3,3	33,8
3,1925	0,9	36,3
3,193	0,5	33,4
3,1935	1,4	26,7
3,194	2,9	17,8
3,1945	4,2	8,7
3,195	3,9	2,8
3,1955	0,9	2,8
3,196	-4,8	7,8
3,1965	-11,3	14,5
3,197	-16,8	20,1
3,1975	-20,3	24,0
3,198	-21,5	26,5
3,1985	-20,7	26,1
3,199	-18,1	20,8
3,1995	-13,9	10,5
3,2	-9,1	-1,4
3,2005	-5,0	-10,3
3,201	-2,3	-13,3
3,2015	-0,9	-11,0
3,202	-0,8	-4,7
3,2025	-1,9	4,1
3,203	-3,7	12,4
3,2035	-5,0	16,2
3,204	-4,7	13,3
3,2045	-2,7	6,1
3,205	-0,2	-1,4
3,2055	1,8	-6,1
3,206	2,7	-8,2
3,2065	2,8	-7,7
3,207	1,8	-3,2
3,2075	-0,5	6,3
3,208	-3,6	19,5
3,2085	-5,9	32,4
3,209	-6,2	40,8
3,2095	-4,3	43,3
3,21	-1,4	40,3
3,2105	1,4	33,0
3,211	3,6	23,1
3,2115	4,5	13,7
3,212	3,0	8,8
3,2125	-1,0	10,1
3,213	-6,1	15,2
3,2135	-10,3	20,8
3,214	-12,4	24,9
3,2145	-12,3	27,3
3,215	-10,4	27,1
3,2155	-6,7	23,1
3,216	-1,7	14,5
3,2165	3,5	3,1
3,217	7,0	-7,0
3,2175	7,6	-12,6
3,218	5,5	-12,7
3,2185	1,6	-8,2
3,219	-3,2	-0,6
3,2195	-8,1	8,5
3,22	-11,8	15,9
3,2205	-13,3	18,0
3,221	-12,8	14,4
3,2215	-11,0	7,7
3,222	-9,3	1,5
3,2225	-7,8	-2,4
3,223	-7,2	-3,5
3,2235	-7,8	-1,0
3,224	-10,1	5,8
3,2245	-14,1	16,4
3,225	-18,2	27,6
3,2255	-20,6	35,4
3,226	-20,4	37,9
3,2265	-18,1	35,2
3,227	-14,5	28,2
3,2275	-10,4	18,6
3,228	-6,7	9,2
3,2285	-4,6	3,9
3,229	-5,1	5,0
3,2295	-7,6	10,7
3,23	-10,2	17,4
3,2305	-11,8	22,2
3,231	-11,8	24,7
3,2315	-10,3	24,8
3,232	-7,0	21,5
3,2325	-1,7	14,0
3,233	5,2	3,6
3,2335	11,6	-6,0
3,234	15,8	-11,0
3,2345	17,3	-10,6
3,235	16,7	-5,8
3,2355	14,6	1,7
3,236	11,4	10,2
3,2365	8,2	16,8
3,237	6,7	18,5
3,2375	7,7	14,5
3,238	10,4	7,1
3,2385	12,8	0,0
3,239	13,9	-4,7
3,2395	14,0	-6,5
3,24	12,8	-4,4
3,2405	9,4	2,6
3,241	3,8	14,1
3,2415	-3,3	26,9
3,242	-9,3	36,1
3,2425	-12,5	38,9
3,243	-13,0	35,6
3,2435	-11,6	27,9
3,244	-9,0	18,1
3,2445	-5,7	8,4
3,245	-3,0	2,4
3,2455	-2,1	2,9
3,246	-3,5	9,2
3,2465	-6,0	17,6
3,247	-8,4	24,2
3,2475	-10,1	27,7
3,248	-11,1	28,2
3,2485	-10,9	24,9
3,249	-9,0	17,1
3,2495	-5,2	5,1
3,25	-0,8	-7,7
3,2505	2,7	-16,8
3,251	4,5	-20,2
3,2515	4,6	-18,1
3,252	3,2	-12,0
3,2525	0,6	-3,3
3,253	-2,4	5,9
3,2535	-4,3	11,6
3,254	-4,0	11,0
3,2545	-1,5	5,6
3,255	1,9	-0,8
3,2555	5,2	-4,4
3,256	7,9	-4,8
3,2565	9,9	-1,7
3,257	10,4	5,2
3,2575	9,0	15,8
3,258	6,2	28,3
3,2585	3,5	38,9
3,259	2,8	44,0
3,2595	5,0	43,4
3,26	9,3	38,5
3,2605	14,8	31,0
3,261	20,1	22,3
3,2615	23,7	15,2
3,262	23,9	13,0
3,2625	20,7	16,4
3,263	15,6	22,9
3,2635	10,8	29,1
3,264	7,5	32,5
3,2645	5,6	32,6
3,265	4,8	28,6
3,2655	5,3	20,3
3,266	7,0	8,4
3,2665	9,2	-4,2
3,267	10,4	-13,6
3,2675	9,7	-17,3
3,268	7,1	-15,8
3,2685	2,4	-10,7
3,269	-4,0	-3,3
3,2695	-11,6	5,0
3,27	-18,7	11,4
3,2705	-23,2	12,8
3,271	-24,4	8,8
3,2715	-23,2	1,8
3,272	-21,2	-4,9
3,2725	-19,6	-9,7
3,273	-18,9	-12,0
3,2735	-19,8	-10,3
3,274	-22,3	-3,4
3,2745	-26,1	8,0
3,275	-29,6	20,3
3,2755	-31,2	28,9
3,276	-30,2	31,4
3,2765	-26,9	28,5
3,277	-22,2	22,0
3,2775	-16,4	13,3
3,278	-10,7	5,0
3,2785	-6,6	0,8
3,279	-5,5	3,2
3,2795	-6,7	10,6
3,28	-8,7	19,2
3,2805	-10,2	25,4
3,281	-11,0	28,5
3,2815	-11,0	28,2
3,282	-9,7	23,8
3,2825	-6,4	15,0
3,283	-1,6	2,8
3,2835	3,0	-9,0
3,284	6,1	-16,5
3,2845	7,0	-18,2
3,285	6,3	-14,6
3,2855	4,7	-7,4
3,286	2,4	1,6
3,2865	0,4	9,5
3,287	0,0	12,8
3,2875	1,8	10,1
3,288	5,2	3,5
3,2885	8,8	-3,4
3,289	11,5	-8,3
3,2895	13,0	-10,7
3,29	12,9	-10,0
3,2905	10,9	-5,2
3,291	7,2	4,2
3,2915	3,0	16,1
3,292	0,5	26,1
3,2925	0,8	31,3
3,293	3,8	31,2
3,2935	8,3	27,1
3,294	13,1	20,2
3,2945	17,1	12,3
3,295	19,3	7,0
3,2955	18,6	7,7
3,296	15,2	14,3
3,2965	10,2	23,1
3,297	5,3	30,1
3,2975	1,3	33,9
3,298	-1,4	35,1
3,2985	-1,8	33,4
3,299	0,7	28,1
3,2995	5,2	18,8
3,3	10,0	7,8
3,3005	12,6	-1,1
3,301	12,3	-5,3
3,3015	9,7	-4,3
3,302	5,8	0,4
3,3025	1,1	7,6
3,303	-4,0	14,6
3,3035	-8,4	17,6
3,304	-10,8	14,5
3,3045	-11,4	6,7
3,305	-11,1	-2,1
3,3055	-10,8	-8,8
3,306	-10,9	-12,6
3,3065	-11,8	-13,2
3,307	-13,6	-9,1
3,3075	-16,5	-0,1
3,308	-20,1	12,5
3,3085	-23,2	24,4
3,309	-24,5	31,4
3,3095	-23,7	32,3
3,31	-21,6	28,1
3,3105	-18,7	20,4
3,311	-15,6	10,9
3,3115	-13,1	2,2
3,312	-12,3	-1,7
3,3125	-13,3	1,0
3,313	-15,1	8,4
3,3135	-15,9	17,0
3,314	-14,9	24,2
3,3145	-12,6	28,9
3,315	-9,7	30,1
3,3155	-5,8	26,4
3,316	-0,6	17,7
3,3165	5,4	6,1
3,317	10,7	-3,6
3,3175	13,9	-7,8
3,318	14,8	-6,0
3,3185	13,8	0,3
3,319	11,5	8,9
3,3195	8,6	17,5
3,32	6,8	22,8
3,3205	7,7	22,0
3,321	11,4	15,9
3,3215	16,6	7,8
3,322	21,4	1,5
3,3225	25,0	-1,7
3,323	27,3	-2,0
3,3235	27,9	1,1
3,324	26,4	8,2
3,3245	22,8	18,9
3,325	18,4	30,3
3,3255	14,9	38,5
3,326	13,4	41,3
3,3265	13,7	39,0
3,327	14,9	32,8
3,3275	16,5	23,9
3,328	17,6	14,6
3,3285	16,8	8,9
3,329	13,1	9,6
3,3295	7,4	15,6
3,33	1,5	22,8
3,3305	-3,5	28,0
3,331	-7,4	29,7
3,3315	-10,7	27,3
3,332	-12,8	20,3
3,3325	-12,9	9,0
3,333	-10,5	-4,0
3,3335	-6,4	-14,6
3,334	-2,6	-19,5
3,3345	-0,5	-18,7
3,335	-0,7	-14,0
3,3355	-3,0	-7,4
3,336	-6,5	0,1
3,3365	-9,8	6,7
3,337	-11,0	9,2
3,3375	-9,2	6,2
3,338	-5,6	-0,5
3,3385	-1,8	-7,6
3,339	0,9	-12,5
3,3395	2,9	-14,3
3,34	4,2	-12,2
3,3405	4,2	-5,6
3,341	2,4	5,1
3,3415	-0,7	17,7
3,342	-3,5	27,7
3,3425	-4,8	31,9
3,343	-3,9	30,3
3,3435	-1,1	24,5
3,344	3,2	16,8
3,3445	8,1	8,8
3,345	12,1	4,0
3,3455	13,3	5,0
3,346	11,6	11,2
3,3465	8,3	18,8
3,347	5,2	24,3
3,3475	2,8	26,7
3,348	0,8	26,2
3,3485	-0,4	22,1
3,349	-0,3	13,9
3,3495	1,6	2,5
3,35	4,5	-8,7
3,3505	6,8	-15,5
3,351	7,3	-16,3
3,3515	6,4	-11,9
3,352	4,6	-4,4
3,3525	2,2	4,4
3,353	-0,4	12,7
3,3535	-2,2	17,3
3,354	-2,1	15,9
3,3545	-0,7	9,8
3,355	0,7	2,6
3,3555	0,8	-2,6
3,356	-0,4	-5,0
3,3565	-2,3	-4,3
3,357	-5,1	0,6
3,3575	-9,0	9,8
3,358	-13,9	21,8
3,3585	-18,6	32,6
3,359	-21,5	38,1
3,3595	-21,8	37,6
3,36	-19,6	32,1
3,3605	-15,3	23,5
3,361	-10,0	13,4
3,3615	-5,0	4,8
3,362	-2,0	1,5
3,3625	-1,7	4,5
3,363	-3,1	11,4
3,3635	-4,4	18,5
3,364	-4,6	23,4
3,3645	-3,5	25,8
3,365	-0,9	25,2
3,3655	3,4	20,5
3,366	9,5	11,6
3,3665	16,3	0,4
3,367	21,8	-8,6
3,3675	24,6	-12,2
3,368	24,4	-10,1
3,3685	22,0	-4,2
3,369	18,3	3,9
3,3695	14,4	12,5
3,37	11,7	19,1
3,3705	11,5	20,5
3,371	13,5	16,7
3,3715	16,0	10,1
3,372	16,7	3,7
3,3725	14,9	-0,7
3,373	11,3	-2,6
3,3735	6,1	-0,8
3,374	-0,5	5,6
3,3745	-8,4	16,0
3,375	-16,5	26,8
3,3755	-23,0	33,6
3,376	-26,1	34,4
3,3765	-25,4	30,1
3,377	-21,4	22,8
3,3775	-15,4	14,3
3,378	-8,7	6,2
3,3785	-3,7	2,2
3,379	-1,9	4,3
3,3795	-3,1	10,8
3,38	-5,7	17,8
3,3805	-8,1	22,6
3,381	-9,7	25,3
3,3815	-10,2	26,2
3,382	-9,0	24,3
3,3825	-5,9	18,1
3,383	-1,7	7,9
3,3835	1,8	-3,0
3,384	3,2	-10,7
3,3845	2,0	-13,3
3,385	-1,2	-11,2
3,3855	-5,2	-5,6
3,386	-9,4	2,0
3,3865	-12,6	9,1
3,387	-13,5	11,8
3,3875	-11,9	8,7
3,388	-8,6	1,5
3,3885	-5,0	-6,0
3,389	-2,0	-11,0
3,3895	0,2	-12,7
3,39	1,3	-10,4
3,3905	0,9	-3,5
3,391	-1,3	8,0
3,3915	-4,7	22,0
3,392	-7,6	33,8
3,3925	-9,1	39,8
3,393	-8,8	39,4
3,3935	-7,0	33,8
3,394	-4,0	24,8
3,3945	0,0	14,6
3,395	3,7	7,3
3,3955	5,5	6,7
3,396	4,7	12,3
3,3965	2,3	20,4
3,397	-0,4	26,5
3,3975	-2,5	29,1
3,398	-3,8	28,3
3,3985	-3,6	23,9
3,399	-1,5	15,7
3,3995	2,8	4,2
3,4	8,0	-7,5
3,4005	12,4	-14,9
3,401	15,0	-16,0
3,4015	15,3	-11,8
3,402	13,8	-4,4
3,4025	10,8	4,6
3,403	7,3	13,3
3,4035	5,0	18,6
3,404	5,2	18,1
3,4045	7,9	12,9
3,405	11,8	6,2
3,4055	15,5	1,2
3,406	18,2	-1,1
3,4065	19,4	0,1
3,407	18,5	5,3
3,4075	14,8	14,2
3,408	8,8	25,3
3,4085	2,3	34,8
3,409	-2,8	39,0
3,4095	-5,5	37,2
3,41	-5,9	30,3
3,4105	-4,4	20,1
3,411	-1,5	8,3
3,4115	1,2	-1,9
3,412	1,9	-6,3
3,4125	-0,2	-3,5
3,413	-4,3	3,8
3,4135	-8,1	11,1
3,414	-10,3	15,5
3,4145	-10,7	17,1
3,415	-9,0	15,6
3,4155	-5,3	10,5
3,416	0,5	1,5
3,4165	7,5	-9,0
3,417	13,9	-16,9
3,4175	18,4	-19,4
3,418	20,3	-16,4
3,4185	20,1	-9,6
3,419	18,1	-0,7
3,4195	15,0	8,7
3,42	11,8	15,5
3,4205	10,4	16,8
3,421	11,4	12,4
3,4215	13,9	5,6
3,422	16,5	-0,1
3,4225	17,9	-3,0
3,423	17,8	-3,2
3,4235	15,5	-0,3
3,424	10,6	6,2
3,4245	3,5	16,1
3,425	-4,0	26,8
3,4255	-9,3	34,3
3,426	-11,0	36,5
3,4265	-9,2	33,6
3,427	-5,1	27,0
3,4275	-0,2	17,9
3,428	4,2	8,5
3,4285	6,6	2,5
3,429	5,9	2,7
3,4295	2,8	8,2
3,43	-0,7	15,4
3,4305	-3,1	21,0
3,431	-4,0	24,1
3,4315	-3,9	24,6
3,432	-2,5	21,5
3,4325	0,4	14,2
3,433	4,5	3,3
3,4335	8,2	-7,9
3,434	10,0	-15,4
3,4345	9,4	-17,3
3,435	6,9	-14,1
3,4355	3,6	-6,8
3,436	0,3	3,0
3,4365	-2,3	12,3
3,437	-2,9	16,9
3,4375	-0,8	14,9
3,438	3,0	8,0
3,4385	6,9	0,1
3,439	10,0	-5,9
3,4395	12,2	-9,0
3,44	13,2	-8,4
3,4405	12,4	-3,5
3,441	9,5	5,9
3,4415	5,1	18,1
3,442	1,3	28,9
3,4425	-0,3	35,0
3,443	0,4	35,2
3,4435	2,7	30,5
3,444	5,8	22,5
3,4445	8,8	13,3
3,445	10,4	5,9
3,4455	9,1	3,8
3,446	4,7	7,1
3,4465	-0,9	13,1
3,447	-5,8	18,3
3,4475	-8,8	21,4
3,448	-10,0	22,3
3,4485	-8,9	20,5
3,449	-5,5	15,1
3,4495	0,2	6,0
3,45	6,3	-4,2
3,4505	10,5	-12,0
3,451	11,3	-15,5
3,4515	9,2	-14,4
3,452	5,5	-10,0
3,4525	1,7	-2,8
3,453	-1,0	5,7
3,4535	-1,3	12,1
3,454	1,6	13,5
3,4545	7,0	9,8
3,455	12,9	3,7
3,4555	17,7	-1,6
3,456	20,8	-4,8
3,4565	22,4	-5,2
3,457	22,4	-1,5
3,4575	20,6	7,1
3,458	17,3	19,7
3,4585	13,4	32,3
3,459	10,4	40,4
3,4595	8,8	41,9
3,46	8,8	37,7
3,4605	10,0	29,8
3,461	12,0	20,4
3,4615	13,8	12,5
3,462	14,2	10,2
3,4625	12,3	14,5
3,463	8,6	22,6
3,4635	4,3	29,9
3,464	-0,0	33,9
3,4645	-4,2	34,4
3,465	-7,5	31,5
3,4655	-8,9	24,8
3,466	-7,8	14,2
3,4665	-4,5	1,9
3,467	-0,8	-7,5
3,4675	1,4	-11,1
3,468	1,4	-8,7
3,4685	-0,5	-2,6
3,469	-4,2	5,4
3,4695	-8,7	13,8
3,47	-12,5	19,9
3,4705	-13,6	20,8
3,471	-11,3	16,0
3,4715	-7,1	8,3
3,472	-2,9	1,3
3,4725	0,0	-3,1
3,473	1,3	-4,7
3,4735	0,9	-3,1
3,474	-1,4	2,8
3,4745	-4,9	13,4
3,475	-8,4	26,1
3,4755	-10,2	36,2
3,476	-9,8	40,7
3,4765	-7,6	39,4
3,477	-4,2	33,7
3,4775	0,0	25,0
3,478	4,2	15,5
3,4785	6,7	8,9
3,479	5,8	8,3
3,4795	2,3	12,9
3,48	-2,0	19,3
3,4805	-5,3	23,9
3,481	-6,7	25,7
3,4815	-6,7	24,7
3,482	-5,1	20,4
3,4825	-1,6	12,3
3,483	3,8	1,5
3,4835	9,8	-8,6
3,484	14,5	-14,3
3,4845	16,6	-14,6
3,485	16,1	-10,4
3,4855	13,1	-3,3
3,486	8,5	5,5
3,4865	3,5	13,3
3,487	0,0	16,3
3,4875	-0,6	12,9
3,488	1,3	5,3
3,4885	4,2	-2,4
3,489	6,8	-7,3
3,4895	8,5	-8,9
3,49	9,0	-7,0
3,4905	7,5	-0,8
3,491	3,6	10,0
3,4915	-2,3	23,5
3,492	-8,3	35,3
3,4925	-12,8	41,1
3,493	-15,0	40,0
3,4935	-15,1	33,4
3,494	-13,2	23,4
3,4945	-9,8	12,2
3,495	-6,0	3,4
3,4955	-3,7	0,9
3,496	-3,4	5,0
3,4965	-4,7	12,3
3,497	-6,1	18,3
3,4975	-6,5	21,2
3,498	-5,4	21,5
3,4985	-2,7	18,7
3,499	2,0	12,2
3,4995	8,1	1,9
3,5	14,1	-9,4
3,5005	18,2	-17,4
3,501	19,2	-19,9
3,5015	17,3	-17,3
3,502	13,3	-11,2
3,5025	7,9	-3,1
3,503	2,5	5,1
3,5035	-1,4	10,2
3,504	-2,3	9,4
3,5045	-0,6	4,0
3,505	2,2	-2,9
3,5055	4,4	-8,2
3,506	5,6	-11,2
3,5065	6,0	-11,5
3,507	5,2	-7,5
3,5075	2,9	1,5
3,508	-0,7	14,4
3,5085	-4,5	27,4
3,509	-6,8	36,3
3,5095	-6,6	39,6
3,51	-4,1	38,1
3,5105	0,1	33,2
3,511	5,0	25,8
3,5115	9,1	17,7
3,512	10,4	12,2
3,5125	8,0	11,5
3,513	2,8	14,7
3,5135	-3,0	18,6
3,514	-7,7	20,7
3,5145	-10,7	20,8
3,515	-12,0	18,3
3,5155	-11,3	12,4
3,516	-8,2	2,9
3,5165	-3,3	-8,2
3,517	1,7	-16,3
3,5175	5,1	-18,4
3,518	6,3	-14,8
3,5185	5,7	-7,4
3,519	3,7	1,8
3,5195	1,0	11,3
3,52	-1,1	18,5
3,5205	-1,0	20,4
3,521	1,5	16,7
3,5215	5,4	9,9
3,522	9,2	3,5
3,5225	11,9	-0,9
3,523	13,2	-3,2
3,5235	12,3	-3,1
3,524	8,8	0,2
3,5245	3,0	6,8
3,525	-3,7	15,1
3,5255	-9,2	21,6
3,526	-12,1	24,1
3,5265	-12,3	22,1
3,527	-10,4	16,7
3,5275	-7,1	8,8
3,528	-3,2	0,3
3,5285	-0,1	-4,9
3,529	0,9	-3,7
3,5295	-0,3	3,0
3,53	-2,4	11,4
3,5305	-4,0	17,7
3,531	-4,4	20,7
3,5315	-3,5	20,4
3,532	-1,1	16,4
3,5325	3,1	8,3
3,533	8,9	-3,0
3,5335	14,8	-13,7
3,534	18,6	-19,6
3,5345	19,7	-19,6
3,535	18,3	-14,9
3,5355	15,4	-7,6
3,536	11,6	0,8
3,5365	8,1	8,5
3,537	6,4	12,2
3,5375	7,7	10,3
3,538	11,0	4,3
3,5385	14,6	-2,8
3,539	17,1	-7,6
3,5395	18,4	-8,5
3,54	18,4	-4,8
3,5405	16,7	4,0
3,541	12,5	16,8
3,5415	6,2	30,9
3,542	-0,8	42,1
3,5425	-6,3	47,2
3,543	-9,6	46,0
3,5435	-10,5	40,2
3,544	-9,7	31,3
3,5445	-7,7	20,8
3,545	-5,8	11,8
3,5455	-5,3	8,0
3,546	-6,6	10,4
3,5465	-9,0	16,2
3,547	-11,2	21,5
3,5475	-12,4	24,4
3,548	-12,6	25,0
3,5485	-11,3	22,5
3,549	-8,1	16,0
3,5495	-3,2	5,7
3,55	2,1	-5,9
3,5505	6,2	-14,6
3,551	8,1	-18,1
3,5515	7,9	-16,4
3,552	6,3	-10,8
3,5525	3,7	-2,7
3,553	0,5	6,0
3,5535	-2,0	11,4
3,554	-2,5	10,8
3,5545	-0,7	4,8
3,555	2,1	-3,1
3,5555	4,4	-9,3
3,556	6,0	-12,5
3,5565	6,9	-12,0
3,557	6,7	-7,0
3,5575	5,0	2,3
3,558	1,5	14,3
3,5585	-2,6	25,6
3,559	-5,9	32,3
3,5595	-7,3	33,6
3,56	-6,9	30,1
3,5605	-5,1	23,3
3,561	-2,5	14,4
3,5615	0,1	6,2
3,562	1,2	2,4
3,5625	-0,2	5,3
3,563	-3,5	13,1
3,5635	-7,4	21,4
3,564	-10,8	26,9
3,5645	-12,9	28,7
3,565	-13,5	26,4
3,5655	-11,6	19,9
3,566	-6,5	9,3
3,5665	1,2	-3,3
3,567	9,4	-13,8
3,5675	16,0	-18,8
3,568	19,7	-18,0
3,5685	20,5	-12,7
3,569	19,0	-4,9
3,5695	15,9	3,8
3,57	12,7	10,8
3,5705	11,3	12,8
3,571	12,4	9,5
3,5715	15,6	3,2
3,572	19,3	-2,3
3,5725	22,4	-5,6
3,573	24,0	-6,7
3,5735	23,3	-5,1
3,574	19,5	0,3
3,5745	12,6	9,9
3,575	3,8	21,6
3,5755	-4,9	31,1
3,576	-12,2	35,1
3,5765	-17,6	33,0
3,577	-20,7	26,3
3,5775	-21,4	16,8
3,578	-20,0	7,1
3,5785	-18,1	1,2
3,579	-17,5	2,0
3,5795	-18,5	8,4
3,58	-20,3	16,0
3,5805	-21,7	21,2
3,581	-22,1	23,3
3,5815	-21,4	22,6
