Interval=	0,0005 s
ExcelDateTime=	4,5911512009552134e+004	11/09/2025 12:17:17,625304
TimeFormat=	StartOfBlock
DateFormat=	
ChannelTitle=	Biceps	Triceps
Range=	1000,0 µV	1000,0 µV
0	-0,1	-0,1
0,0005	-0,6	-1,1
0,001	-1,5	-4,0
0,0015	-1,1	-8,4
0,002	2,1	-13,1
0,0025	8,0	-16,5
0,003	15,0	-18,6
0,0035	21,5	-19,6
0,004	26,9	-20,1
0,0045	31,5	-20,4
0,005	35,3	-21,1
0,0055	38,1	-22,2
0,006	39,8	-23,2
0,0065	40,7	-23,8
0,007	41,0	-24,0
0,0075	40,6	-23,8
0,008	39,1	-23,1
0,0085	36,1	-21,9
0,009	31,8	-20,7
0,0095	26,6	-19,9
0,01	20,9	-20,0
0,0105	15,1	-20,8
0,011	9,3	-22,1
0,0115	3,7	-23,2
0,012	-1,2	-23,9
0,0125	-5,5	-24,2
0,013	-8,8	-24,1
0,0135	-10,8	-23,8
0,014	-10,8	-23,2
0,0145	-9,1	-22,7
0,015	-6,6	-22,7
0,0155	-3,8	-22,9
0,016	-0,8	-23,2
0,0165	2,6	-23,4
0,017	6,3	-23,8
0,0175	10,1	-24,4
0,018	13,8	-24,8
0,0185	17,2	-24,6
0,019	20,1	-23,6
0,0195	22,0	-22,2
0,02	22,2	-20,9
0,0205	21,7	-20,1
0,021	22,8	-19,7
0,0215	27,1	-19,8
0,022	34,3	-20,3
0,0225	43,4	-21,1
0,023	53,1	-22,0
0,0235	62,4	-22,9
0,024	70,2	-23,3
0,0245	75,0	-23,3
0,025	76,1	-23,3
0,0255	72,1	-23,1
0,026	62,0	-22,9
0,0265	46,3	-22,8
0,027	27,1	-23,0
0,0275	7,8	-23,3
0,028	-9,0	-23,7
0,0285	-21,8	-24,1
0,029	-30,2	-24,4
0,0295	-34,8	-24,4
0,03	-36,3	-24,1
0,0305	-35,3	-23,5
0,031	-32,4	-22,8
0,0315	-28,3	-22,2
0,032	-24,1	-21,9
0,0325	-20,2	-21,9
0,033	-16,1	-22,2
0,0335	-11,1	-22,8
0,034	-5,4	-23,7
0,0345	0,3	-24,5
0,035	5,3	-24,6
0,0355	9,5	-23,9
0,036	13,0	-23,0
0,0365	15,4	-22,3
0,037	16,4	-22,1
0,0375	16,0	-22,4
0,038	14,5	-22,9
0,0385	12,7	-23,6
0,039	11,4	-24,0
0,0395	11,0	-24,3
0,04	11,7	-24,3
0,0405	13,2	-23,9
0,041	14,6	-23,4
0,0415	15,1	-22,8
0,042	14,6	-22,0
0,0425	13,1	-21,4
0,043	10,8	-21,2
0,0435	8,6	-21,5
0,044	7,4	-22,2
0,0445	7,9	-22,9
0,045	10,0	-23,3
0,0455	12,8	-23,3
0,046	15,7	-22,8
0,0465	17,9	-21,7
0,047	19,5	-20,3
0,0475	20,2	-19,1
0,048	20,1	-18,2
0,0485	19,2	-17,8
0,049	17,6	-17,8
0,0495	15,7	-18,0
0,05	13,8	-18,4
0,0505	11,8	-19,2
0,051	9,9	-20,0
0,0515	7,8	-20,8
0,052	5,7	-21,0
0,0525	3,6	-20,9
0,053	1,6	-20,6
0,0535	0,0	-20,5
0,054	-1,0	-20,8
0,0545	-1,3	-21,4
0,055	-1,1	-22,2
0,0555	-0,2	-22,8
0,056	1,2	-23,3
0,0565	3,0	-23,3
0,057	4,6	-23,3
0,0575	5,5	-23,0
0,058	5,5	-22,8
0,0585	4,7	-22,4
0,059	3,7	-21,7
0,0595	3,0	-20,8
0,06	3,4	-19,8
0,0605	5,0	-19,2
0,061	7,3	-18,7
0,0615	9,6	-18,3
0,062	10,7	-17,8
0,0625	10,1	-17,5
0,063	7,5	-17,5
0,0635	3,8	-17,6
0,064	0,5	-17,8
0,0645	-1,3	-17,9
0,065	-1,3	-18,1
0,0655	-0,4	-18,2
0,066	0,5	-18,4
0,0665	1,3	-18,7
0,067	2,5	-19,2
0,0675	4,3	-20,2
0,068	6,8	-21,3
0,0685	9,6	-22,2
0,069	12,7	-22,7
0,0695	15,8	-22,8
0,07	18,9	-22,7
0,0705	21,8	-22,2
0,071	24,6	-21,5
0,0715	27,0	-20,8
0,072	28,3	-20,4
0,0725	28,4	-20,3
0,073	27,6	-20,5
0,0735	26,2	-20,5
0,074	24,8	-20,2
0,0745	23,8	-19,6
0,075	24,5	-19,1
0,0755	27,5	-18,9
0,076	32,8	-19,2
0,0765	39,1	-19,9
0,077	44,6	-20,6
0,0775	48,1	-21,0
0,078	49,5	-21,0
0,0785	50,6	-21,0
0,079	53,7	-21,3
0,0795	59,2	-21,8
0,08	65,7	-22,0
0,0805	70,4	-21,8
0,081	72,3	-21,0
0,0815	70,9	-20,0
0,082	66,5	-19,2
0,0825	59,6	-19,0
0,083	50,7	-19,2
0,0835	40,4	-19,3
0,084	28,8	-18,9
0,0845	15,9	-18,0
0,085	1,9	-16,8
0,0855	-12,4	-15,8
0,086	-25,8	-15,0
0,0865	-37,4	-14,8
0,087	-46,2	-14,8
0,0875	-51,4	-15,1
0,088	-52,7	-15,2
0,0885	-50,0	-15,1
0,089	-44,8	-15,0
0,0895	-38,3	-14,9
0,09	-31,5	-14,9
0,0905	-24,4	-14,8
0,091	-16,9	-14,6
0,0915	-9,4	-14,2
0,092	-2,9	-13,6
0,0925	2,4	-13,1
0,093	6,9	-12,8
0,0935	11,2	-13,1
0,094	15,2	-13,8
0,0945	18,0	-15,0
0,095	19,2	-16,2
0,0955	19,3	-16,9
0,096	19,4	-16,8
0,0965	20,0	-16,2
0,097	21,3	-15,3
0,0975	23,3	-14,8
0,098	26,1	-14,4
0,0985	29,4	-14,3
0,099	33,2	-14,2
0,0995	37,5	-14,1
0,1	42,1	-14,1
0,1005	45,8	-14,3
0,101	47,2	-14,7
0,1015	45,6	-15,1
0,102	41,9	-15,4
0,1025	37,7	-15,7
0,103	34,3	-16,2
0,1035	32,0	-16,8
0,104	30,7	-17,4
0,1045	29,9	-17,8
0,105	28,9	-18,0
0,1055	27,4	-18,2
0,106	25,9	-18,1
0,1065	24,6	-17,8
0,107	23,0	-17,4
0,1075	20,5	-17,2
0,108	16,8	-17,0
0,1085	12,2	-16,8
0,109	6,9	-16,4
0,1095	2,0	-16,1
0,11	-1,7	-16,0
0,1105	-3,8	-16,3
0,111	-4,0	-16,7
0,1115	-1,9	-17,1
0,112	2,5	-17,4
0,1125	8,6	-17,6
0,113	15,2	-17,6
0,1135	21,5	-17,3
0,114	26,7	-16,4
0,1145	30,2	-15,2
0,115	31,7	-13,8
0,1155	31,3	-12,8
0,116	29,3	-12,2
0,1165	25,9	-12,0
0,117	21,4	-12,1
0,1175	16,3	-12,6
0,118	11,1	-13,5
0,1185	6,6	-14,1
0,119	3,1	-14,1
0,1195	0,8	-13,8
0,12	-0,3	-13,5
0,1205	-0,1	-13,3
0,121	1,5	-13,4
0,1215	4,3	-14,0
0,122	7,6	-15,0
0,1225	10,4	-16,2
0,123	12,5	-17,2
0,1235	14,3	-18,0
0,124	16,6	-18,5
0,1245	19,4	-18,6
0,125	22,2	-18,0
0,1255	24,7	-16,8
0,126	27,2	-15,3
0,1265	30,5	-14,2
0,127	35,0	-13,6
0,1275	40,1	-13,4
0,128	44,9	-13,4
0,1285	48,1	-13,5
0,129	48,8	-13,6
0,1295	46,8	-13,8
0,13	42,6	-13,9
0,1305	37,4	-13,9
0,131	32,5	-13,8
0,1315	28,5	-13,9
0,132	25,8	-14,2
0,1325	24,2	-14,6
0,133	23,5	-15,0
0,1335	22,9	-15,3
0,134	21,3	-15,1
0,1345	18,0	-14,4
0,135	13,0	-13,3
0,1355	7,0	-12,1
0,136	1,5	-11,3
0,1365	-2,5	-11,3
0,137	-4,3	-12,0
0,1375	-4,5	-13,2
0,138	-4,2	-14,3
0,1385	-3,9	-14,7
0,139	-3,4	-14,6
0,1395	-2,2	-14,2
0,14	-0,3	-13,7
0,1405	1,8	-12,9
0,141	3,4	-12,0
0,1415	4,7	-11,3
0,142	5,8	-11,0
0,1425	7,0	-11,3
0,143	7,9	-11,9
0,1435	8,5	-12,8
0,144	9,0	-13,7
0,1445	9,4	-14,3
0,145	9,8	-14,4
0,1455	10,2	-14,3
0,146	10,8	-14,0
0,1465	11,8	-13,5
0,147	13,3	-12,8
0,1475	15,6	-12,0
0,148	18,5	-11,1
0,1485	21,9	-10,2
0,149	25,2	-9,3
0,1495	28,2	-8,9
0,15	30,5	-9,0
0,1505	31,9	-9,6
0,151	32,3	-10,6
0,1515	31,4	-11,5
0,152	29,4	-12,1
0,1525	26,8	-12,3
0,153	24,7	-12,3
0,1535	23,5	-12,3
0,154	23,2	-12,2
0,1545	23,1	-12,3
0,155	22,6	-12,6
0,1555	21,6	-13,2
0,156	20,1	-13,8
0,1565	18,4	-14,2
0,157	16,8	-14,2
0,1575	15,6	-13,9
0,158	14,7	-13,4
0,1585	14,0	-13,0
0,159	13,5	-12,6
0,1595	13,1	-12,3
0,16	13,2	-12,0
0,1605	13,7	-11,7
0,161	14,1	-11,3
0,1615	13,9	-11,0
0,162	12,9	-11,1
0,1625	11,3	-11,8
0,163	9,6	-13,1
0,1635	8,3	-14,6
0,164	7,6	-15,6
0,1645	7,7	-16,2
0,165	8,4	-16,6
0,1655	9,6	-17,2
0,166	11,1	-18,0
0,1665	12,7	-18,7
0,167	14,6	-18,9
0,1675	17,5	-18,7
0,168	21,7	-17,8
0,1685	26,5	-16,5
0,169	31,3	-14,7
0,1695	35,3	-12,8
0,17	38,1	-11,0
0,1705	39,8	-9,4
0,171	40,4	-8,3
0,1715	39,8	-8,0
0,172	38,0	-8,8
0,1725	35,0	-10,8
0,173	31,4	-13,5
0,1735	27,8	-16,3
0,174	24,6	-18,5
0,1745	22,0	-19,6
0,175	20,8	-19,4
0,1755	21,6	-18,1
0,176	24,5	-16,0
0,1765	28,6	-14,0
0,177	32,2	-12,5
0,1775	33,8	-11,8
0,178	32,3	-11,5
0,1785	28,0	-11,7
0,179	21,7	-11,9
0,1795	15,1	-12,1
0,18	8,9	-11,9
0,1805	3,1	-11,4
0,181	-2,9	-10,5
0,1815	-9,3	-9,4
0,182	-15,8	-8,4
0,1825	-21,1	-7,6
0,183	-24,5	-7,1
0,1835	-25,3	-7,0
0,184	-24,1	-7,6
0,1845	-21,5	-8,6
0,185	-17,8	-9,8
0,1855	-12,9	-10,9
0,186	-6,9	-11,9
0,1865	-0,8	-12,8
0,187	4,4	-13,3
0,1875	8,5	-13,2
0,188	11,7	-12,7
0,1885	13,9	-12,2
0,189	15,2	-12,1
0,1895	15,8	-12,4
0,19	16,1	-13,0
0,1905	16,4	-13,5
0,191	16,8	-13,8
0,1915	17,2	-13,8
0,192	17,8	-13,4
0,1925	19,1	-12,7
0,193	22,0	-12,1
0,1935	26,8	-11,9
0,194	32,8	-12,3
0,1945	38,8	-13,0
0,195	44,1	-13,7
0,1955	49,2	-14,0
0,196	54,3	-13,9
0,1965	60,1	-13,3
0,197	67,7	-12,3
0,1975	78,4	-11,1
0,198	92,5	-10,1
0,1985	108,4	-9,5
0,199	123,0	-9,2
0,1995	134,3	-8,9
0,2	141,3	-8,6
0,2005	143,5	-8,3
0,201	139,9	-8,3
0,2015	129,8	-8,4
0,202	113,2	-8,4
0,2025	90,6	-7,9
0,203	62,5	-6,8
0,2035	30,0	-5,6
0,204	-4,2	-4,4
0,2045	-36,7	-3,6
0,205	-64,3	-3,5
0,2055	-85,3	-3,9
0,206	-98,9	-4,7
0,2065	-105,6	-5,3
0,207	-105,8	-5,7
0,2075	-100,5	-6,0
0,208	-91,5	-6,4
0,2085	-81,0	-7,0
0,209	-70,4	-7,5
0,2095	-59,3	-7,6
0,21	-46,6	-7,4
0,2105	-32,5	-7,3
0,211	-18,2	-7,0
0,2115	-5,1	-6,7
0,212	6,2	-6,4
0,2125	15,2	-6,2
0,213	21,7	-6,4
0,2135	25,0	-6,8
0,214	25,3	-7,3
0,2145	23,0	-7,7
0,215	19,8	-7,8
0,2155	16,9	-8,0
0,216	15,3	-8,1
0,2165	15,0	-8,3
0,217	15,3	-8,6
0,2175	16,0	-8,8
0,218	16,5	-8,8
0,2185	16,8	-8,5
0,219	17,1	-8,2
0,2195	17,3	-7,9
0,22	17,6	-7,8
0,2205	17,9	-8,0
0,221	18,4	-8,3
0,2215	19,3	-8,7
0,222	20,0	-9,1
0,2225	20,3	-9,3
0,223	19,9	-9,3
0,2235	18,7	-9,2
0,224	17,0	-8,9
0,2245	15,3	-8,4
0,225	14,4	-7,8
0,2255	14,8	-7,2
0,226	16,4	-6,6
0,2265	19,3	-6,3
0,227	22,9	-6,4
0,2275	26,8	-6,8
0,228	30,4	-7,2
0,2285	33,0	-7,6
0,229	34,2	-7,8
0,2295	33,9	-7,9
0,23	32,6	-7,7
0,2305	30,9	-7,2
0,231	29,6	-6,3
0,2315	29,6	-5,4
0,232	31,0	-4,9
0,2325	33,2	-4,7
0,233	35,5	-4,5
0,2335	37,2	-4,2
0,234	37,7	-3,6
0,2345	36,6	-2,9
0,235	33,4	-2,2
0,2355	28,5	-1,6
0,236	22,1	-1,0
0,2365	15,1	-0,7
0,237	8,3	-0,8
0,2375	2,5	-1,3
0,238	-2,0	-2,1
0,2385	-5,8	-3,1
0,239	-9,0	-4,0
0,2395	-11,4	-4,7
0,24	-12,8	-5,3
0,2405	-13,5	-5,9
0,241	-13,4	-6,4
0,2415	-12,8	-6,8
0,242	-11,5	-7,0
0,2425	-9,3	-7,1
0,243	-6,3	-7,3
0,2435	-2,4	-7,6
0,244	1,8	-8,0
0,2445	5,5	-8,3
0,245	8,3	-8,4
0,2455	10,5	-8,4
0,246	12,4	-8,3
0,2465	14,1	-8,3
0,247	15,3	-8,3
0,2475	15,6	-8,3
0,248	15,0	-8,3
0,2485	13,9	-8,0
0,249	12,9	-7,3
0,2495	12,4	-6,4
0,25	12,5	-5,5
0,2505	13,4	-5,0
0,251	14,9	-4,7
0,2515	16,5	-4,3
0,252	18,0	-3,8
0,2525	19,3	-3,0
0,253	20,5	-2,1
0,2535	21,7	-1,3
0,254	23,0	-0,8
0,2545	24,2	-0,8
0,255	25,3	-1,0
0,2555	26,2	-1,3
0,256	26,7	-1,7
0,2565	26,2	-2,3
0,257	24,2	-3,0
0,2575	20,7	-3,8
0,258	16,9	-4,8
0,2585	14,2	-5,6
0,259	12,8	-6,1
0,2595	12,3	-6,6
0,26	11,8	-7,3
0,2605	10,8	-8,4
0,261	9,9	-9,6
0,2615	10,0	-10,7
0,262	11,4	-11,4
0,2625	13,9	-11,8
0,263	16,9	-12,0
0,2635	20,0	-12,0
0,264	22,8	-11,8
0,2645	25,0	-11,2
0,265	26,6	-10,5
0,2655	28,3	-10,0
0,266	30,9	-9,6
0,2665	35,1	-9,2
0,267	40,0	-8,5
0,2675	44,5	-7,6
0,268	47,2	-6,6
0,2685	47,8	-5,5
0,269	46,2	-4,3
0,2695	42,2	-3,4
0,27	36,0	-2,7
0,2705	28,3	-2,2
0,271	20,4	-1,9
0,2715	13,4	-1,8
0,272	7,2	-1,9
0,2725	0,9	-2,5
0,273	-6,3	-3,6
0,2735	-14,3	-4,8
0,274	-22,2	-6,2
0,2745	-28,7	-7,5
0,275	-32,2	-8,6
0,2755	-32,1	-9,2
0,276	-28,6	-9,3
0,2765	-23,0	-9,3
0,277	-16,7	-9,7
0,2775	-10,2	-10,7
0,278	-3,1	-12,0
0,2785	4,8	-13,2
0,279	13,0	-14,1
0,2795	19,9	-14,3
0,28	24,6	-13,8
0,2805	27,4	-12,8
0,281	29,0	-11,6
0,2815	29,8	-10,7
0,282	29,9	-9,9
0,2825	28,7	-9,3
0,283	25,8	-8,9
0,2835	21,6	-9,3
0,284	17,5	-10,1
0,2845	14,2	-11,0
0,285	11,5	-11,1
0,2855	8,5	-10,1
0,286	4,6	-8,4
0,2865	-0,2	-6,8
0,287	-4,8	-5,8
0,2875	-8,4	-6,0
0,288	-10,3	-7,5
0,2885	-10,3	-9,7
0,289	-9,2	-11,8
0,2895	-7,7	-13,1
0,29	-6,5	-13,5
0,2905	-5,9	-12,9
0,291	-5,4	-11,8
0,2915	-4,3	-10,6
0,292	-2,4	-9,3
0,2925	0,1	-8,3
0,293	2,9	-7,6
0,2935	6,1	-7,3
0,294	9,4	-7,4
0,2945	12,3	-7,6
0,295	14,4	-7,8
0,2955	15,8	-7,8
0,296	16,8	-7,7
0,2965	17,4	-7,4
0,297	17,1	-6,9
0,2975	15,8	-6,3
0,298	13,4	-5,7
0,2985	10,7	-5,6
0,299	8,7	-5,7
0,2995	7,8	-6,0
0,3	7,7	-6,3
0,3005	7,8	-6,8
0,301	7,9	-7,6
0,3015	8,1	-8,3
0,302	8,7	-8,8
0,3025	9,8	-8,8
0,303	11,5	-8,7
0,3035	13,5	-8,8
0,304	15,9	-9,1
0,3045	18,5	-9,7
0,305	21,3	-10,4
0,3055	24,2	-11,1
0,306	26,7	-11,7
0,3065	28,5	-12,0
0,307	29,6	-11,9
0,3075	30,2	-11,4
0,308	30,3	-10,6
0,3085	29,8	-9,9
0,309	29,7	-9,4
0,3095	31,3	-9,4
0,31	35,5	-10,0
0,3105	41,6	-11,0
0,311	48,8	-11,8
0,3115	56,2	-12,1
0,312	63,3	-12,0
0,3125	68,6	-11,6
0,313	71,7	-10,9
0,3135	73,2	-10,1
0,314	73,3	-9,3
0,3145	70,9	-8,6
0,315	65,1	-8,2
0,3155	56,7	-7,9
0,316	47,9	-7,8
0,3165	40,4	-7,7
0,317	34,4	-7,8
0,3175	29,3	-7,8
0,318	23,7	-7,7
0,3185	16,4	-7,2
0,319	7,1	-6,8
0,3195	-4,0	-6,7
0,32	-17,0	-7,2
0,3205	-31,5	-8,0
0,321	-45,8	-8,7
0,3215	-57,4	-9,3
0,322	-64,4	-9,7
0,3225	-65,7	-10,0
0,323	-61,0	-10,4
0,3235	-50,8	-10,6
0,324	-37,2	-10,5
0,3245	-23,5	-9,9
0,325	-12,3	-8,9
0,3255	-5,0	-7,5
0,326	-0,9	-6,2
0,3265	1,5	-5,3
0,327	4,7	-5,1
0,3275	9,9	-5,5
0,328	16,5	-6,3
0,3285	22,8	-7,4
0,329	27,0	-8,3
0,3295	28,8	-8,8
0,33	29,1	-8,9
0,3305	28,3	-8,7
0,331	26,8	-8,4
0,3315	24,7	-8,1
0,332	22,5	-7,7
0,3325	20,7	-7,4
0,333	19,8	-7,3
0,3335	19,8	-7,7
0,334	20,7	-8,5
0,3345	22,1	-9,4
0,335	23,6	-9,7
0,3355	24,6	-9,1
0,336	24,2	-8,1
0,3365	22,1	-7,1
0,337	18,7	-6,2
0,3375	14,9	-5,5
0,338	11,8	-5,3
0,3385	9,9	-5,8
0,339	9,3	-6,7
0,3395	9,5	-7,5
0,34	10,3	-7,8
0,3405	11,8	-7,7
0,341	13,6	-7,1
0,3415	15,2	-6,3
0,342	16,5	-5,4
0,3425	17,9	-4,8
0,343	20,4	-4,6
0,3435	24,0	-4,9
0,344	28,0	-5,4
0,3445	31,5	-6,0
0,345	33,9	-6,4
0,3455	35,7	-6,8
0,346	36,9	-6,8
0,3465	37,2	-6,5
0,347	35,6	-5,6
0,3475	31,7	-4,5
0,348	26,1	-3,8
0,3485	20,1	-3,8
0,349	14,7	-4,4
0,3495	10,3	-5,2
0,35	6,5	-5,6
0,3505	2,6	-5,8
0,351	-1,8	-5,8
0,3515	-6,9	-5,7
0,352	-11,5	-5,7
0,3525	-14,1	-5,8
0,353	-14,3	-6,1
0,3535	-13,1	-6,2
0,354	-12,2	-6,0
0,3545	-12,4	-5,5
0,355	-13,2	-5,0
0,3555	-13,7	-4,6
0,356	-13,4	-4,2
0,3565	-12,5	-3,4
0,357	-12,1	-2,4
0,3575	-13,1	-1,3
0,358	-15,8	-0,7
0,3585	-19,6	-0,3
0,359	-23,2	-0,2
0,3595	-25,2	-0,1
0,36	-25,2	-0,3
0,3605	-23,2	-0,8
0,361	-19,9	-1,2
0,3615	-15,7	-1,5
0,362	-10,6	-1,5
0,3625	-4,9	-1,4
0,363	1,5	-1,3
0,3635	8,8	-1,5
0,364	16,6	-1,9
0,3645	24,4	-2,5
0,365	31,7	-3,2
0,3655	38,0	-4,0
0,366	42,7	-4,8
0,3665	45,7	-5,7
0,367	47,3	-6,4
0,3675	47,8	-6,8
0,368	47,5	-6,6
0,3685	46,1	-5,9
0,369	43,8	-4,6
0,3695	40,5	-3,3
0,37	36,7	-2,5
0,3705	32,5	-2,2
0,371	28,3	-2,3
0,3715	24,8	-2,6
0,372	22,1	-2,8
0,3725	20,1	-2,8
0,373	18,3	-2,6
0,3735	16,0	-2,3
0,374	13,4	-1,8
0,3745	10,8	-1,2
0,375	8,8	-0,8
0,3755	8,2	-0,5
0,376	9,2	-0,6
0,3765	11,9	-1,1
0,377	15,7	-2,3
0,3775	19,8	-4,1
0,378	23,5	-6,0
0,3785	26,7	-7,7
0,379	29,2	-8,7
0,3795	30,8	-8,9
0,38	31,1	-8,5
0,3805	30,1	-7,4
0,381	28,5	-5,5
0,3815	26,8	-3,3
0,382	25,3	-1,1
0,3825	23,7	0,6
0,383	21,0	1,3
0,3835	16,9	1,0
0,384	11,6	-0,1
0,3845	5,9	-1,4
0,385	0,8	-2,6
0,3855	-2,7	-3,3
0,386	-4,6	-3,6
0,3865	-5,3	-3,8
0,387	-5,3	-3,9
0,3875	-4,6	-4,2
0,388	-2,9	-4,8
0,3885	0,0	-5,5
0,389	3,6	-6,1
0,3895	7,2	-6,5
0,39	10,1	-6,7
0,3905	12,2	-6,9
0,391	13,6	-7,1
0,3915	14,5	-7,1
0,392	14,7	-6,8
0,3925	13,8	-6,3
0,393	12,3	-5,6
0,3935	10,7	-4,8
0,394	9,9	-4,1
0,3945	9,8	-3,4
0,395	9,8	-2,8
0,3955	8,9	-2,3
0,396	7,1	-2,3
0,3965	5,0	-2,6
0,397	3,8	-3,0
0,3975	4,1	-3,3
0,398	5,3	-3,4
0,3985	6,5	-3,5
0,399	7,3	-4,0
0,3995	7,7	-5,1
0,4	8,1	-6,6
0,4005	9,0	-8,2
0,401	10,3	-9,6
0,4015	11,5	-10,4
0,402	12,2	-10,5
0,4025	11,9	-10,1
0,403	10,5	-9,4
0,4035	8,4	-8,8
0,404	6,2	-8,5
0,4045	4,4	-8,5
0,405	3,5	-8,8
0,4055	3,7	-9,2
0,406	4,9	-9,6
0,4065	6,8	-9,8
0,407	8,6	-9,8
0,4075	10,1	-9,6
0,408	11,1	-9,4
0,4085	11,4	-9,3
0,409	11,0	-9,4
0,4095	10,3	-9,5
0,41	9,8	-9,7
0,4105	9,8	-10,1
0,411	10,0	-10,6
0,4115	10,5	-11,1
0,412	11,4	-11,2
0,4125	13,0	-10,7
0,413	15,5	-9,6
0,4135	18,7	-8,3
0,414	22,4	-7,1
0,4145	26,2	-6,1
0,415	29,8	-5,2
0,4155	33,3	-4,5
0,416	36,5	-4,2
0,4165	39,2	-4,3
0,417	41,1	-4,8
0,4175	41,9	-5,4
0,418	41,5	-5,6
0,4185	39,4	-5,4
0,419	35,5	-5,2
0,4195	30,1	-5,3
0,42	23,5	-5,7
0,4205	16,8	-6,3
0,421	11,4	-7,0
0,4215	8,2	-7,7
0,422	7,1	-8,3
0,4225	6,8	-8,7
0,423	6,4	-8,6
0,4235	5,4	-8,4
0,424	4,4	-8,4
0,4245	4,2	-8,8
0,425	5,1	-9,2
0,4255	6,7	-9,5
0,426	8,4	-9,6
0,4265	10,2	-9,8
0,427	12,3	-9,9
0,4275	14,8	-10,1
0,428	17,2	-10,2
0,4285	18,7	-10,3
0,429	18,8	-10,3
0,4295	17,7	-10,2
0,43	15,7	-9,8
0,4305	12,8	-9,3
0,431	9,3	-8,7
0,4315	5,8	-8,2
0,432	2,5	-7,9
0,4325	0,0	-7,9
0,433	-1,3	-7,8
0,4335	-0,9	-7,7
0,434	0,9	-7,4
0,4345	3,7	-7,1
0,435	6,4	-6,8
0,4355	8,6	-6,8
0,436	10,3	-7,1
0,4365	11,4	-7,9
0,437	12,2	-8,9
0,4375	13,0	-10,0
0,438	14,3	-11,1
0,4385	16,3	-12,1
0,439	18,8	-12,9
0,4395	22,1	-13,6
0,44	26,3	-13,8
0,4405	30,8	-13,5
0,441	34,7	-12,8
0,4415	36,6	-11,8
0,442	36,4	-11,0
0,4425	35,3	-10,4
0,443	35,2	-10,2
0,4435	36,8	-10,2
0,444	39,2	-10,3
0,4445	40,8	-10,1
0,445	41,6	-9,7
0,4455	43,3	-8,9
0,446	46,9	-7,9
0,4465	50,8	-6,6
0,447	52,5	-5,4
0,4475	50,6	-4,4
0,448	45,2	-3,8
0,4485	36,9	-3,2
0,449	26,6	-2,4
0,4495	14,9	-1,6
0,45	3,3	-1,0
0,4505	-5,8	-1,1
0,451	-10,8	-2,0
0,4515	-11,8	-3,6
0,452	-9,9	-5,7
0,4525	-6,4	-7,8
0,453	-2,4	-9,7
0,4535	1,0	-11,3
0,454	3,3	-12,3
0,4545	4,9	-12,6
0,455	6,0	-12,3
0,4555	5,7	-11,6
0,456	2,8	-11,1
0,4565	-3,4	-10,7
0,457	-12,2	-10,3
0,4575	-21,4	-9,8
0,458	-29,2	-9,2
0,4585	-34,5	-8,5
0,459	-37,8	-7,6
0,4595	-38,8	-6,9
0,46	-37,0	-6,7
0,4605	-31,6	-7,1
0,461	-23,8	-8,0
0,4615	-16,6	-9,0
0,462	-12,1	-9,8
0,4625	-10,4	-10,5
0,463	-9,5	-10,8
0,4635	-7,6	-10,8
0,464	-3,9	-10,4
0,4645	1,2	-10,2
0,465	7,3	-10,5
0,4655	13,6	-11,4
0,466	18,7	-12,8
0,4665	21,3	-14,3
0,467	21,6	-15,7
0,4675	20,3	-16,8
0,468	18,5	-17,3
0,4685	17,0	-17,2
0,469	15,9	-16,7
0,4695	15,0	-16,1
0,47	14,0	-15,7
0,4705	12,4	-15,5
0,471	10,0	-15,3
0,4715	7,0	-15,3
0,472	4,3	-15,4
0,4725	2,0	-15,4
0,473	0,5	-15,3
0,4735	-0,5	-14,8
0,474	-1,3	-14,2
0,4745	-1,7	-13,3
0,475	-1,6	-12,4
0,4755	-1,1	-11,3
0,476	-0,1	-10,0
0,4765	1,5	-8,9
0,477	3,6	-8,3
0,4775	6,2	-8,2
0,478	8,6	-8,7
0,4785	10,5	-9,3
0,479	12,1	-9,9
0,4795	13,6	-10,2
0,48	15,2	-10,0
0,4805	16,8	-9,4
0,481	18,2	-8,7
0,4815	19,3	-8,1
0,482	20,4	-7,8
0,4825	21,4	-7,7
0,483	21,8	-7,7
0,4835	21,5	-7,6
0,484	20,2	-7,4
0,4845	17,6	-7,0
0,485	13,3	-6,6
0,4855	7,7	-6,2
0,486	1,7	-6,1
0,4865	-3,7	-6,5
0,487	-8,2	-7,3
0,4875	-11,8	-8,3
0,488	-14,5	-9,3
0,4885	-16,1	-10,3
0,489	-16,1	-11,1
0,4895	-14,8	-11,6
0,49	-12,9	-11,8
0,4905	-11,5	-11,8
0,491	-10,8	-11,6
0,4915	-10,5	-11,3
0,492	-10,3	-10,6
0,4925	-9,8	-9,7
0,493	-8,5	-9,0
0,4935	-6,5	-8,9
0,494	-4,0	-9,4
0,4945	-1,4	-10,2
0,495	0,9	-11,2
0,4955	2,7	-12,1
0,496	4,0	-13,0
0,4965	5,2	-13,7
0,497	6,3	-14,1
0,4975	7,6	-13,9
0,498	8,7	-13,5
0,4985	9,8	-13,0
0,499	11,4	-12,9
0,4995	13,4	-13,1
0,5	15,5	-13,2
0,5005	17,2	-13,0
0,501	18,2	-12,5
0,5015	18,1	-11,6
0,502	17,0	-10,5
0,5025	15,4	-9,4
0,503	14,3	-8,5
0,5035	14,6	-7,9
0,504	16,8	-7,3
0,5045	20,6	-6,7
0,505	24,8	-5,8
0,5055	27,9	-5,2
0,506	29,2	-5,3
0,5065	28,5	-6,0
0,507	26,7	-7,3
0,5075	24,5	-8,7
0,508	22,4	-9,8
0,5085	20,4	-10,6
0,509	18,3	-10,9
0,5095	15,9	-10,8
0,51	13,0	-10,7
0,5105	9,4	-10,7
0,511	5,3	-10,8
0,5115	1,0	-10,7
0,512	-3,1	-10,5
0,5125	-6,8	-10,5
0,513	-10,3	-10,9
0,5135	-13,4	-11,7
0,514	-15,8	-12,6
0,5145	-17,2	-13,4
0,515	-17,1	-13,6
0,5155	-15,6	-13,3
0,516	-12,6	-12,9
0,5165	-7,8	-12,7
0,517	-1,4	-12,8
0,5175	6,0	-13,0
0,518	13,0	-12,8
0,5185	18,3	-12,2
0,519	21,6	-11,2
0,5195	23,2	-9,9
0,52	23,6	-8,6
0,5205	23,2	-7,7
0,521	22,2	-7,2
0,5215	21,2	-7,2
0,522	20,2	-7,4
0,5225	19,4	-7,6
0,523	18,4	-7,5
0,5235	17,1	-7,4
0,524	15,0	-7,3
0,5245	12,0	-7,4
0,525	8,2	-7,7
0,5255	3,8	-7,9
0,526	-0,7	-8,3
0,5265	-4,8	-8,8
0,527	-7,9	-9,7
0,5275	-10,0	-10,7
0,528	-11,0	-11,8
0,5285	-11,5	-12,7
0,529	-12,2	-13,4
0,5295	-13,5	-14,1
0,53	-15,0	-14,6
0,5305	-15,6	-15,1
0,531	-14,2	-15,4
0,5315	-10,8	-15,6
0,532	-6,2	-15,6
0,5325	-1,4	-15,5
0,533	3,0	-15,6
0,5335	6,8	-16,0
0,534	9,3	-16,7
0,5345	10,2	-17,5
0,535	9,5	-17,9
0,5355	7,6	-17,8
0,536	4,8	-17,1
0,5365	1,4	-16,2
0,537	-2,8	-15,2
0,5375	-7,7	-14,3
0,538	-13,0	-13,9
0,5385	-17,9	-14,1
0,539	-21,3	-14,7
0,5395	-22,1	-15,4
0,54	-19,7	-15,9
0,5405	-14,1	-16,3
0,541	-6,7	-16,5
0,5415	1,3	-16,7
0,542	9,2	-16,8
0,5425	16,9	-16,8
0,543	24,0	-17,0
0,5435	29,8	-17,4
0,544	32,8	-18,0
0,5445	32,6	-18,5
0,545	29,3	-18,8
0,5455	24,1	-18,8
0,546	18,3	-18,5
0,5465	12,6	-17,7
0,547	7,5	-16,4
0,5475	2,9	-15,1
0,548	-0,6	-13,9
0,5485	-2,6	-12,7
0,549	-3,1	-11,5
0,5495	-2,9	-10,6
0,55	-2,8	-10,0
0,5505	-2,6	-9,7
0,551	-1,8	-9,4
0,5515	0,3	-8,9
0,552	3,9	-8,5
0,5525	8,7	-8,2
0,553	13,8	-8,1
0,5535	18,1	-8,3
0,554	21,3	-9,0
0,5545	23,8	-10,2
0,555	26,1	-11,8
0,5555	28,5	-13,4
0,556	30,5	-14,8
0,5565	31,5	-15,6
0,557	30,9	-15,8
0,5575	28,3	-15,7
0,558	24,1	-15,4
0,5585	18,8	-15,3
0,559	13,0	-15,0
0,5595	8,4	-14,7
0,56	7,3	-14,4
0,5605	11,4	-14,3
0,561	19,6	-14,3
0,5615	28,2	-14,4
0,562	34,6	-14,4
0,5625	38,1	-14,2
0,563	39,2	-13,9
0,5635	38,1	-13,6
0,564	34,3	-13,4
0,5645	27,7	-13,4
0,565	18,1	-13,3
0,5655	6,1	-13,2
0,566	-7,7	-12,8
0,5665	-22,2	-12,4
0,567	-36,1	-11,8
0,5675	-48,6	-11,3
0,568	-58,4	-10,8
0,5685	-64,2	-10,4
0,569	-65,1	-9,9
0,5695	-61,2	-9,8
0,57	-53,5	-10,1
0,5705	-43,8	-10,8
0,571	-33,6	-12,0
0,5715	-23,9	-13,6
0,572	-15,2	-15,2
0,5725	-7,5	-16,5
0,573	-1,3	-17,3
0,5735	3,0	-17,5
0,574	5,7	-17,2
0,5745	8,0	-16,4
0,575	10,7	-15,5
0,5755	14,1	-14,5
0,576	17,3	-13,8
0,5765	19,8	-13,4
0,577	20,9	-13,6
0,5775	20,6	-14,1
0,578	19,3	-14,7
0,5785	17,6	-15,2
0,579	15,8	-15,3
0,5795	13,9	-15,3
0,58	11,9	-14,9
0,5805	10,0	-14,5
0,581	9,8	-14,1
0,5815	13,3	-13,9
0,582	21,0	-14,1
0,5825	31,7	-14,6
0,583	43,1	-15,4
0,5835	53,5	-16,0
0,584	62,0	-16,3
0,5845	68,1	-16,4
0,585	71,3	-15,9
0,5855	71,0	-14,9
0,586	65,9	-13,4
0,5865	55,7	-11,6
0,587	41,2	-9,9
0,5875	24,8	-8,5
0,588	8,8	-7,7
0,5885	-5,3	-7,7
0,589	-16,8	-8,3
0,5895	-25,1	-9,3
0,59	-30,3	-10,2
0,5905	-32,2	-10,7
0,591	-30,9	-11,1
0,5915	-26,9	-11,2
0,592	-22,0	-10,9
0,5925	-17,9	-10,1
0,593	-15,1	-9,2
0,5935	-13,2	-8,6
0,594	-11,6	-8,8
0,5945	-10,7	-9,7
0,595	-11,0	-11,1
0,5955	-12,1	-12,5
0,596	-13,0	-13,4
0,5965	-12,8	-13,6
0,597	-12,0	-13,6
0,5975	-11,6	-13,6
0,598	-12,0	-13,8
0,5985	-12,6	-14,0
0,599	-12,8	-14,2
0,5995	-12,1	-14,3
0,6	-10,4	-14,3
0,6005	-8,0	-14,3
0,601	-5,5	-14,6
0,6015	-3,5	-14,7
0,602	-2,0	-14,7
0,6025	-0,8	-14,7
0,603	0,7	-14,8
0,6035	2,7	-15,1
0,604	5,3	-15,3
0,6045	8,3	-15,4
0,605	10,6	-15,3
0,6055	11,4	-15,2
0,606	10,2	-14,9
0,6065	7,4	-14,6
0,607	4,3	-13,9
0,6075	1,7	-12,9
0,608	0,1	-11,7
0,6085	-1,2	-10,4
0,609	-2,7	-9,8
0,6095	-4,5	-10,2
0,61	-6,0	-11,2
0,6105	-6,3	-12,4
0,611	-4,5	-13,4
0,6115	-0,6	-14,3
0,612	4,4	-15,0
0,6125	9,1	-15,6
0,613	12,3	-16,2
0,6135	13,9	-16,4
0,614	14,3	-16,3
0,6145	14,2	-15,7
0,615	14,0	-14,8
0,6155	13,9	-13,9
0,616	13,6	-13,3
0,6165	12,9	-13,1
0,617	11,7	-13,4
0,6175	9,9	-14,1
0,618	7,3	-14,4
0,6185	3,5	-14,0
0,619	-1,3	-13,0
0,6195	-6,9	-11,9
0,62	-12,6	-10,8
0,6205	-17,6	-10,0
0,621	-21,6	-9,7
0,6215	-24,1	-9,8
0,622	-24,8	-10,3
0,6225	-23,4	-11,0
0,623	-20,7	-11,7
0,6235	-17,5	-12,4
0,624	-14,4	-13,0
0,6245	-11,6	-13,3
0,625	-9,0	-13,4
0,6255	-6,3	-13,3
0,626	-3,1	-13,0
0,6265	0,4	-12,7
0,627	3,8	-12,3
0,6275	6,8	-12,1
0,628	9,6	-12,1
0,6285	12,4	-12,3
0,629	15,5	-12,7
0,6295	18,5	-13,0
0,63	21,2	-13,0
0,6305	23,1	-12,6
0,631	23,6	-12,0
0,6315	22,9	-11,5
0,632	21,5	-11,3
0,6325	20,2	-11,2
0,633	19,7	-11,1
0,6335	20,0	-10,8
0,634	21,0	-10,6
0,6345	22,0	-10,4
0,635	22,0	-9,9
0,6355	20,2	-8,9
0,636	16,0	-7,5
0,6365	10,2	-6,4
0,637	4,2	-5,9
0,6375	-0,5	-6,0
0,638	-3,8	-6,5
0,6385	-6,2	-7,2
0,639	-8,5	-7,7
0,6395	-11,3	-7,9
0,64	-14,3	-7,9
0,6405	-17,0	-7,8
0,641	-18,9	-7,6
0,6415	-19,9	-7,5
0,642	-20,3	-7,6
0,6425	-20,4	-7,8
0,643	-20,0	-8,1
0,6435	-18,6	-8,5
0,644	-15,9	-8,9
0,6445	-11,9	-9,5
0,645	-7,3	-10,1
0,6455	-2,3	-10,8
0,646	2,8	-11,1
0,6465	7,6	-11,2
0,647	11,4	-10,8
0,6475	13,9	-10,2
0,648	14,5	-9,5
0,6485	13,0	-9,1
0,649	9,9	-8,8
0,6495	5,8	-8,7
0,65	1,6	-8,9
0,6505	-2,3	-9,4
0,651	-6,2	-10,1
0,6515	-9,9	-10,4
0,652	-13,2	-10,4
0,6525	-15,0	-10,2
0,653	-14,7	-9,8
0,6535	-12,1	-9,5
0,654	-7,8	-9,3
0,6545	-2,7	-9,1
0,655	2,5	-9,0
0,6555	8,1	-9,1
0,656	14,6	-9,4
0,6565	21,6	-9,7
0,657	28,5	-9,9
0,6575	33,8	-10,0
0,658	37,2	-9,9
0,6585	38,5	-9,8
0,659	38,5	-9,5
0,6595	37,9	-9,1
0,66	36,8	-8,8
0,6605	35,0	-8,6
0,661	32,7	-8,2
0,6615	30,7	-7,6
0,662	30,9	-6,8
0,6625	34,7	-5,9
0,663	42,1	-5,3
0,6635	52,8	-4,9
0,664	65,9	-4,8
0,6645	80,1	-5,0
0,665	93,0	-5,8
0,6655	102,3	-7,0
0,666	106,4	-8,4
0,6665	104,2	-9,7
0,667	95,4	-10,5
0,6675	80,8	-10,8
0,668	60,9	-10,7
0,6685	36,9	-10,2
0,669	10,1	-9,7
0,6695	-16,8	-9,7
0,67	-40,4	-10,2
0,6705	-57,5	-10,9
0,671	-66,7	-11,7
0,6715	-68,3	-12,6
0,672	-64,2	-13,5
0,6725	-56,4	-14,1
0,673	-47,2	-14,0
0,6735	-37,7	-13,3
0,674	-28,9	-12,2
0,6745	-21,5	-11,0
0,675	-15,5	-9,6
0,6755	-10,2	-7,8
0,676	-4,5	-5,8
0,6765	1,9	-4,2
0,677	8,2	-3,2
0,6775	12,9	-2,9
0,678	14,9	-3,1
0,6785	13,5	-3,4
0,679	8,9	-4,0
0,6795	2,3	-4,8
0,68	-5,2	-5,5
0,6805	-11,7	-6,4
0,681	-16,0	-7,5
0,6815	-17,3	-9,0
0,682	-15,8	-10,6
0,6825	-12,9	-12,2
0,683	-10,1	-13,8
0,6835	-8,2	-15,5
0,684	-7,1	-17,2
0,6845	-6,5	-18,4
0,685	-6,3	-18,8
0,6855	-6,5	-18,2
0,686	-6,8	-17,1
0,6865	-6,9	-15,8
0,687	-6,6	-14,6
0,6875	-6,0	-13,8
0,688	-5,6	-13,6
0,6885	-5,7	-13,9
0,689	-6,1	-14,3
0,6895	-6,5	-14,5
0,69	-6,3	-14,2
0,6905	-5,5	-13,3
0,691	-4,3	-11,9
0,6915	-2,9	-10,3
0,692	-1,7	-9,2
0,6925	-0,9	-8,7
0,693	-0,5	-8,9
0,6935	0,2	-9,6
0,694	1,3	-10,3
0,6945	2,9	-10,7
0,695	4,3	-10,8
0,6955	5,1	-10,8
0,696	4,8	-10,5
0,6965	3,8	-10,0
0,697	2,2	-9,3
0,6975	0,1	-8,5
0,698	-2,3	-7,9
0,6985	-4,6	-7,6
0,699	-6,3	-7,4
0,6995	-7,1	-7,5
0,7	-7,5	-7,8
0,7005	-7,2	-8,5
0,701	-5,8	-9,4
0,7015	-3,2	-10,2
0,702	0,3	-10,5
0,7025	3,9	-10,4
0,703	7,3	-9,9
0,7035	10,5	-9,4
0,704	13,4	-8,8
0,7045	15,9	-8,4
0,705	17,6	-8,5
0,7055	18,3	-8,9
0,706	18,1	-9,4
0,7065	17,2	-9,8
0,707	14,9	-9,8
0,7075	10,8	-9,7
0,708	5,1	-9,3
0,7085	-1,9	-8,8
0,709	-9,0	-8,5
0,7095	-15,6	-8,4
0,71	-21,3	-8,6
0,7105	-26,0	-8,7
0,711	-30,1	-8,8
0,7115	-33,6	-8,8
0,712	-36,6	-9,0
0,7125	-38,5	-9,3
0,713	-38,5	-9,6
0,7135	-36,1	-9,8
0,714	-31,3	-9,9
0,7145	-24,7	-9,9
0,715	-17,3	-10,2
0,7155	-10,1	-10,7
0,716	-3,1	-11,4
0,7165	4,3	-12,2
0,717	12,7	-13,3
0,7175	22,2	-14,3
0,718	32,3	-15,2
0,7185	42,6	-15,5
0,719	52,6	-15,2
0,7195	61,4	-14,2
0,72	68,0	-12,7
0,7205	71,3	-11,1
0,721	70,9	-10,1
0,7215	66,5	-9,8
0,722	58,6	-10,1
0,7225	47,9	-10,6
0,723	35,9	-10,8
0,7235	23,9	-10,9
0,724	13,2	-11,1
0,7245	3,9	-11,5
0,725	-4,3	-11,8
0,7255	-11,3	-11,7
0,726	-16,9	-11,4
0,7265	-20,2	-10,9
0,727	-21,0	-10,3
0,7275	-20,1	-9,4
0,728	-17,9	-8,3
0,7285	-14,8	-7,4
0,729	-11,1	-6,9
0,7295	-7,6	-7,1
0,73	-4,7	-8,1
0,7305	-1,9	-9,3
0,731	1,4	-10,2
0,7315	5,5	-10,7
0,732	10,1	-11,0
0,7325	15,1	-11,5
0,733	20,4	-12,2
0,7335	25,2	-13,3
0,734	28,0	-14,5
0,7345	28,0	-15,7
0,735	25,3	-16,4
0,7355	20,6	-16,3
0,736	15,3	-15,4
0,7365	10,4	-14,4
0,737	6,3	-13,6
0,7375	3,6	-12,9
0,738	2,8	-12,2
0,7385	3,8	-11,6
0,739	6,4	-11,3
0,7395	9,6	-11,5
0,74	12,5	-11,9
0,7405	14,6	-12,4
0,741	15,4	-13,0
0,7415	15,3	-13,4
0,742	14,9	-13,6
0,7425	14,8	-13,6
0,743	15,5	-13,5
0,7435	16,5	-13,7
0,744	17,0	-14,0
0,7445	16,7	-14,2
0,745	16,0	-14,0
0,7455	15,3	-13,4
0,746	14,0	-12,7
0,7465	11,6	-12,3
0,747	8,0	-12,4
0,7475	4,1	-13,0
0,748	0,8	-13,9
0,7485	-1,6	-15,0
0,749	-3,2	-16,1
0,7495	-3,8	-17,4
0,75	-3,3	-18,6
0,7505	-2,1	-19,7
0,751	-0,9	-20,5
0,7515	-0,9	-20,7
0,752	-2,1	-20,2
0,7525	-4,0	-19,2
0,753	-6,3	-18,0
0,7535	-8,1	-16,5
0,754	-9,1	-14,8
0,7545	-9,0	-13,0
0,755	-8,2	-11,4
0,7555	-7,2	-10,8
0,756	-6,2	-11,1
0,7565	-5,1	-12,1
0,757	-3,3	-13,4
0,7575	0,8	-14,4
0,758	8,4	-15,1
0,7585	19,1	-15,3
0,759	30,9	-15,1
0,7595	42,3	-14,5
0,76	52,3	-13,6
0,7605	59,8	-12,7
0,761	63,3	-11,8
0,7615	62,5	-11,0
0,762	59,0	-10,4
0,7625	54,9	-10,3
0,763	51,1	-10,5
0,7635	47,8	-10,9
0,764	44,8	-11,3
0,7645	41,8	-11,3
0,765	37,9	-10,8
0,7655	32,4	-9,8
0,766	24,8	-8,5
0,7665	15,1	-7,2
0,767	3,9	-6,4
0,7675	-8,1	-6,1
0,768	-19,8	-6,1
0,7685	-30,2	-6,1
0,769	-38,5	-6,1
0,7695	-44,2	-6,2
0,77	-47,3	-6,5
0,7705	-48,3	-7,0
0,771	-47,5	-7,8
0,7715	-44,9	-8,8
0,772	-40,6	-9,9
0,7725	-35,2	-10,8
0,773	-29,7	-11,6
0,7735	-24,8	-12,0
0,774	-20,0	-11,9
0,7745	-14,8	-11,3
0,775	-9,0	-10,3
0,7755	-3,3	-9,2
0,776	2,0	-8,3
0,7765	6,5	-8,1
0,777	9,8	-8,5
0,7775	11,4	-9,2
0,778	11,2	-9,8
0,7785	9,7	-10,0
0,779	8,0	-9,9
0,7795	7,2	-9,4
0,78	7,8	-8,8
0,7805	9,8	-8,3
0,781	13,0	-7,8
0,7815	16,9	-7,4
0,782	21,1	-7,1
0,7825	24,9	-6,8
0,783	28,1	-6,8
0,7835	30,4	-7,3
0,784	32,6	-8,4
0,7845	35,5	-9,8
0,785	39,7	-11,0
0,7855	44,5	-11,4
0,786	48,8	-11,1
0,7865	51,4	-10,3
0,787	51,8	-9,3
0,7875	49,9	-8,1
0,788	46,3	-7,3
0,7885	41,9	-7,3
0,789	37,1	-8,2
0,7895	32,3	-9,7
0,79	27,9	-11,2
0,7905	23,9	-12,3
0,791	20,7	-13,1
0,7915	18,0	-13,6
0,792	15,8	-13,8
0,7925	14,2	-13,5
0,793	13,3	-13,0
0,7935	12,6	-12,4
0,794	11,1	-11,9
0,7945	8,8	-11,6
0,795	6,1	-11,6
0,7955	3,4	-11,7
0,796	1,2	-11,8
0,7965	-0,6	-11,8
0,797	-1,7	-11,4
0,7975	-2,1	-10,8
0,798	-1,5	-10,0
0,7985	0,8	-9,3
0,799	5,0	-8,9
0,7995	10,9	-8,7
0,8	16,7	-8,6
0,8005	21,1	-8,4
0,801	23,3	-8,0
0,8015	23,3	-7,3
0,802	21,8	-6,4
0,8025	19,0	-5,6
0,803	15,3	-5,1
0,8035	10,7	-5,2
0,804	5,0	-5,5
0,8045	-1,6	-6,1
0,805	-8,6	-7,0
0,8055	-16,1	-8,3
0,806	-24,3	-9,9
0,8065	-32,7	-11,5
0,807	-40,3	-12,6
0,8075	-46,4	-12,9
0,808	-50,6	-12,7
0,8085	-53,1	-11,8
0,809	-54,2	-10,8
0,8095	-53,9	-9,7
0,81	-52,4	-8,6
0,8105	-49,9	-7,7
0,811	-46,8	-6,9
0,8115	-43,1	-6,5
0,812	-38,9	-6,5
0,8125	-34,6	-6,8
0,813	-30,5	-7,2
0,8135	-26,7	-7,3
0,814	-22,8	-7,0
0,8145	-18,7	-6,4
0,815	-14,3	-5,9
0,8155	-9,9	-5,9
0,816	-5,5	-6,4
0,8165	-1,5	-7,3
0,817	2,0	-8,3
0,8175	4,7	-9,0
0,818	6,3	-9,1
0,8185	6,8	-8,4
0,819	6,7	-7,3
0,8195	6,5	-5,9
0,82	6,4	-4,9
0,8205	6,3	-4,3
0,821	6,2	-4,5
0,8215	6,5	-5,1
0,822	7,5	-5,8
0,8225	9,2	-6,3
0,823	11,3	-6,5
0,8235	13,1	-6,5
0,824	14,4	-6,2
0,8245	15,3	-5,7
0,825	15,7	-5,3
0,8255	15,4	-5,3
0,826	14,9	-5,8
0,8265	15,0	-6,8
0,827	15,7	-7,8
0,8275	16,5	-8,7
0,828	16,8	-9,1
0,8285	17,2	-8,8
0,829	18,0	-8,0
0,8295	19,0	-6,9
0,83	19,4	-5,7
0,8305	18,9	-4,6
0,831	17,8	-3,7
0,8315	16,8	-2,6
0,832	16,3	-1,3
0,8325	16,0	0,3
0,833	15,4	1,3
0,8335	14,1	1,2
0,834	11,9	0,0
0,8345	9,6	-1,8
0,835	7,9	-3,9
0,8355	7,4	-5,4
0,836	8,2	-6,2
0,8365	10,2	-6,3
0,837	13,5	-6,0
0,8375	17,3	-5,7
0,838	20,6	-5,5
0,8385	22,5	-5,3
0,839	22,2	-5,2
0,8395	19,5	-5,1
0,84	15,2	-4,7
0,8405	10,4	-4,2
0,841	6,1	-3,8
0,8415	2,4	-3,8
0,842	-1,3	-4,3
0,8425	-5,2	-5,1
0,843	-8,6	-6,1
0,8435	-10,9	-7,1
0,844	-11,8	-8,0
0,8445	-11,6	-8,6
0,845	-10,4	-8,8
0,8455	-9,0	-8,6
0,846	-7,8	-8,1
0,8465	-6,7	-7,5
0,847	-5,3	-6,6
0,8475	-3,0	-5,4
0,848	0,3	-4,1
0,8485	4,1	-2,8
0,849	7,6	-1,8
0,8495	10,4	-1,3
0,85	12,4	-1,8
0,8505	13,2	-3,2
0,851	12,5	-5,1
0,8515	10,4	-7,0
0,852	7,7	-8,5
0,8525	5,5	-9,7
0,853	4,5	-10,4
0,8535	4,8	-10,8
0,854	5,7	-10,7
0,8545	6,4	-10,3
0,855	6,5	-9,9
0,8555	6,0	-9,8
0,856	5,0	-10,3
0,8565	3,9	-11,1
0,857	2,3	-12,2
0,8575	0,1	-13,0
0,858	-2,5	-13,5
0,8585	-5,2	-13,5
0,859	-7,5	-13,1
0,8595	-8,9	-12,3
0,86	-9,0	-10,9
0,8605	-7,9	-9,0
0,861	-6,0	-6,8
0,8615	-3,9	-4,9
0,862	-2,3	-3,5
0,8625	-1,5	-2,6
0,863	-1,7	-2,0
0,8635	-2,4	-1,6
0,864	-2,4	-1,4
0,8645	-1,3	-1,3
0,865	0,9	-1,5
0,8655	3,9	-2,0
0,866	7,1	-2,8
0,8665	10,0	-3,6
0,867	12,1	-4,3
0,8675	14,1	-4,9
0,868	18,3	-5,3
0,8685	26,2	-5,4
0,869	37,0	-5,2
0,8695	48,2	-4,9
0,87	57,4	-4,8
0,8705	63,8	-5,2
0,871	66,4	-6,1
0,8715	64,7	-7,2
0,872	58,4	-8,3
0,8725	48,2	-9,4
0,873	34,7	-10,2
0,8735	18,5	-10,7
0,874	0,3	-10,9
0,8745	-19,2	-10,9
0,875	-38,6	-10,7
0,8755	-56,1	-10,3
0,876	-68,5	-9,9
0,8765	-73,2	-9,7
0,877	-69,0	-9,9
0,8775	-57,0	-10,3
0,878	-39,4	-10,5
0,8785	-19,3	-10,3
0,879	-0,2	-9,6
0,8795	15,3	-8,9
0,88	26,3	-8,4
0,8805	33,1	-8,3
0,881	35,8	-8,5
0,8815	34,6	-8,7
0,882	30,2	-8,8
0,8825	24,3	-8,9
0,883	17,9	-9,1
0,8835	11,7	-9,6
0,884	5,5	-10,1
0,8845	-0,7	-10,5
0,885	-6,4	-10,4
0,8855	-11,0	-10,0
0,886	-14,0	-9,5
0,8865	-15,8	-9,0
0,887	-17,1	-8,7
0,8875	-17,1	-8,3
0,888	-14,9	-8,3
0,8885	-10,2	-8,3
0,889	-3,8	-8,5
0,8895	2,9	-8,9
0,89	9,5	-9,4
0,8905	15,6	-10,0
0,891	20,7	-10,4
0,8915	23,9	-10,7
0,892	24,3	-10,8
0,8925	21,2	-11,0
0,893	14,9	-11,3
0,8935	6,5	-12,0
0,894	-2,9	-12,8
0,8945	-11,9	-13,3
0,895	-18,8	-13,4
0,8955	-22,4	-12,8
0,896	-23,0	-11,9
0,8965	-21,5	-11,0
0,897	-18,9	-10,3
0,8975	-15,3	-9,9
0,898	-10,6	-9,5
0,8985	-4,9	-9,0
0,899	0,6	-8,6
0,8995	4,5	-8,3
0,9	5,8	-8,3
0,9005	4,9	-8,4
0,901	2,7	-8,4
0,9015	0,3	-8,3
0,902	-1,3	-8,0
0,9025	-1,4	-7,7
0,903	-0,1	-7,4
0,9035	2,0	-7,4
0,904	3,8	-7,9
0,9045	4,5	-8,9
0,905	4,1	-10,3
0,9055	3,3	-11,6
0,906	3,6	-12,4
0,9065	5,2	-12,7
0,907	7,5	-12,8
0,9075	9,8	-13,2
0,908	12,3	-13,8
0,9085	15,5	-14,3
0,909	19,4	-14,3
0,9095	23,0	-13,8
0,91	24,9	-13,0
0,9105	24,1	-12,3
0,911	21,2	-12,0
0,9115	17,5	-12,3
0,912	14,1	-13,0
0,9125	11,2	-13,8
0,913	9,1	-14,4
0,9135	8,0	-14,5
0,914	7,4	-14,0
0,9145	6,8	-13,1
0,915	5,4	-12,0
0,9155	2,8	-10,9
0,916	-0,6	-10,0
0,9165	-4,5	-9,4
0,917	-8,3	-9,2
0,9175	-11,2	-9,5
0,918	-13,1	-9,9
0,9185	-14,0	-10,0
0,919	-14,3	-9,9
0,9195	-14,6	-9,6
0,92	-14,9	-9,1
0,9205	-15,4	-8,8
0,921	-16,0	-8,6
0,9215	-16,6	-9,0
0,922	-16,9	-9,8
0,9225	-16,1	-10,8
0,923	-13,8	-11,6
0,9235	-9,4	-12,2
0,924	-3,5	-12,3
0,9245	2,8	-12,0
0,925	8,4	-11,5
0,9255	12,5	-11,1
0,926	15,2	-10,8
0,9265	16,8	-11,1
0,927	17,7	-11,6
0,9275	17,9	-12,3
0,928	17,4	-13,2
0,9285	16,3	-14,0
0,929	14,2	-14,5
0,9295	11,3	-14,6
0,93	7,9	-14,2
0,9305	4,4	-13,4
0,931	0,9	-12,5
0,9315	-2,7	-11,7
0,932	-5,6	-11,0
0,9325	-6,7	-10,7
0,933	-5,3	-10,7
0,9335	-1,9	-10,9
0,934	1,9	-11,1
0,9345	4,8	-11,0
0,935	6,7	-10,7
0,9355	7,6	-10,2
0,936	7,3	-9,9
0,9365	5,8	-9,8
0,937	3,2	-9,7
0,9375	0,3	-9,8
0,938	-2,1	-9,9
0,9385	-4,1	-10,3
0,939	-5,8	-10,4
0,9395	-7,5	-10,3
0,94	-9,1	-9,7
0,9405	-10,4	-8,8
0,941	-11,4	-7,8
0,9415	-11,8	-7,2
0,942	-11,8	-7,1
0,9425	-11,4	-7,8
0,943	-11,2	-9,1
0,9435	-11,4	-10,7
0,944	-11,4	-12,2
0,9445	-10,2	-13,2
0,945	-7,4	-13,8
0,9455	-3,9	-14,2
0,946	-0,7	-14,2
0,9465	1,9	-13,6
0,947	4,4	-12,6
0,9475	7,3	-11,3
0,948	10,5	-10,0
0,9485	13,5	-8,8
0,949	15,8	-7,5
0,9495	17,4	-6,3
0,95	18,2	-5,2
0,9505	18,6	-4,7
0,951	18,8	-5,0
0,9515	18,6	-5,8
0,952	17,9	-6,9
0,9525	16,9	-7,9
0,953	16,2	-8,6
0,9535	16,1	-9,1
0,954	16,8	-9,3
0,9545	17,8	-9,2
0,955	18,3	-9,2
0,9555	17,6	-9,7
0,956	15,6	-10,4
0,9565	12,4	-11,0
0,957	8,5	-11,0
0,9575	4,4	-10,7
0,958	0,1	-10,4
0,9585	-4,7	-10,3
0,959	-10,1	-10,5
0,9595	-15,5	-10,8
0,96	-20,1	-11,3
0,9605	-23,3	-11,8
0,961	-24,8	-12,0
0,9615	-24,4	-11,8
0,962	-21,4	-11,6
0,9625	-14,8	-11,3
0,963	-4,0	-11,1
0,9635	10,4	-11,0
0,964	27,3	-10,9
0,9645	45,5	-10,6
0,965	64,0	-10,1
0,9655	80,7	-9,6
0,966	93,1	-9,3
0,9665	99,0	-9,5
0,967	97,2	-10,5
0,9675	87,9	-12,1
0,968	72,8	-13,7
0,9685	54,1	-14,6
0,969	34,4	-14,7
0,9695	15,8	-14,0
0,97	-0,3	-13,0
0,9705	-13,3	-12,0
0,971	-22,8	-11,3
0,9715	-28,7	-11,3
0,972	-31,5	-11,8
0,9725	-31,5	-12,5
0,973	-28,7	-12,8
0,9735	-22,9	-12,5
0,974	-14,3	-11,9
0,9745	-3,7	-11,3
0,975	7,6	-10,7
0,9755	19,2	-10,5
0,976	30,5	-10,6
0,9765	40,5	-11,3
0,977	46,9	-12,1
0,9775	47,4	-12,8
0,978	40,7	-12,9
0,9785	27,5	-12,7
0,979	10,0	-12,0
0,9795	-8,9	-11,0
0,98	-26,8	-9,7
0,9805	-41,8	-8,1
0,981	-53,3	-6,5
0,9815	-61,3	-5,2
0,982	-65,9	-4,1
0,9825	-66,7	-3,5
0,983	-63,4	-3,3
0,9835	-56,5	-3,3
0,984	-46,9	-3,5
0,9845	-35,8	-3,8
0,985	-23,9	-4,3
0,9855	-11,9	-4,9
0,986	-0,4	-5,6
0,9865	10,1	-6,3
0,987	19,3	-6,8
0,9875	27,2	-7,5
0,988	33,4	-8,3
0,9885	37,0	-9,3
0,989	36,9	-10,3
0,9895	33,1	-11,2
0,99	26,4	-11,7
0,9905	18,4	-11,7
0,991	10,4	-11,2
0,9915	3,1	-10,2
0,992	-2,8	-9,1
0,9925	-7,3	-8,0
0,993	-10,1	-7,0
0,9935	-11,4	-6,1
0,994	-12,0	-5,2
0,9945	-12,6	-4,7
0,995	-13,8	-4,7
0,9955	-15,5	-5,1
0,996	-17,3	-5,9
0,9965	-18,4	-6,7
0,997	-17,9	-7,3
0,9975	-15,9	-7,5
0,998	-13,1	-7,3
0,9985	-10,6	-7,0
0,999	-8,9	-6,5
0,9995	-8,2	-6,2
1	-8,3	-6,1
1,0005	-8,7	-6,3
1,001	-9,0	-6,8
1,0015	-8,4	-7,4
1,002	-6,4	-7,9
1,0025	-3,0	-8,3
1,003	1,3	-8,6
1,0035	5,7	-8,7
1,004	9,8	-8,5
1,0045	13,0	-8,2
1,005	15,3	-7,6
1,0055	16,7	-6,9
1,006	17,3	-6,1
1,0065	17,2	-5,2
1,007	16,2	-4,3
1,0075	14,1	-3,5
1,008	10,8	-2,7
1,0085	7,2	-2,0
1,009	4,0	-1,4
1,0095	2,1	-1,1
1,01	1,7	-0,8
1,0105	2,9	-0,4
1,011	5,3	-0,2
1,0115	7,5	-0,3
1,012	8,4	-1,0
1,0125	7,8	-1,8
1,013	6,7	-2,6
1,0135	6,1	-3,2
1,014	6,6	-3,6
1,0145	7,9	-3,8
1,015	9,4	-3,8
1,0155	10,6	-3,7
1,016	11,4	-3,6
1,0165	11,5	-3,8
1,017	11,0	-4,0
1,0175	9,8	-4,2
1,018	8,2	-4,4
1,0185	7,0	-4,8
1,019	7,1	-5,4
1,0195	8,5	-6,2
1,02	10,7	-6,9
1,0205	12,6	-7,5
1,021	13,6	-8,1
1,0215	13,8	-8,5
1,022	13,4	-8,8
1,0225	12,1	-8,8
1,023	9,8	-8,9
1,0235	6,6	-9,0
1,024	2,9	-9,2
1,0245	-0,6	-9,3
1,025	-3,2	-8,9
1,0255	-4,2	-8,3
1,026	-3,4	-7,3
1,0265	-1,3	-6,4
1,027	1,2	-5,5
1,0275	3,6	-4,7
1,028	5,9	-4,1
1,0285	8,5	-3,4
1,029	11,5	-2,7
1,0295	14,4	-2,1
1,03	16,5	-1,8
1,0305	17,2	-1,8
1,031	16,8	-1,9
1,0315	16,2	-2,0
1,032	16,1	-1,8
1,0325	16,6	-1,3
1,033	17,1	-0,8
1,0335	16,5	-0,5
1,034	14,0	-0,5
1,0345	9,7	-0,5
1,035	4,8	-0,7
1,0355	0,5	-1,0
1,036	-2,7	-1,3
1,0365	-4,9	-1,6
1,037	-6,6	-1,8
1,0375	-8,2	-1,9
1,038	-9,3	-2,2
1,0385	-9,3	-2,6
1,039	-7,4	-3,2
1,0395	-3,0	-3,6
1,04	3,4	-3,5
1,0405	10,8	-2,8
1,041	18,1	-1,6
1,0415	24,3	-0,4
1,042	29,0	0,6
1,0425	32,5	1,0
1,043	34,8	1,0
1,0435	35,3	0,4
1,044	34,0	-0,3
1,0445	31,4	-1,1
1,045	28,4	-1,6
1,0455	25,6	-1,7
1,046	22,9	-1,2
1,0465	20,5	-0,2
1,047	18,4	1,0
1,0475	17,1	2,1
1,048	16,4	2,8
1,0485	15,9	2,9
1,049	15,1	2,6
1,0495	13,0	2,1
1,05	9,4	1,4
1,0505	4,7	0,8
1,051	-0,1	-0,1
1,0515	-3,7	-1,1
1,052	-5,6	-2,0
1,0525	-5,6	-2,6
1,053	-3,8	-2,7
1,0535	-0,3	-2,1
1,054	4,8	-0,9
1,0545	10,9	0,2
1,055	17,3	1,0
1,0555	23,4	1,2
1,056	29,0	0,8
1,0565	34,6	-0,0
1,057	40,3	-0,9
1,0575	45,8	-1,5
1,058	50,2	-1,8
1,0585	53,2	-1,6
1,059	54,9	-0,8
1,0595	55,6	0,2
1,06	55,1	1,0
1,0605	53,2	1,4
1,061	49,9	1,7
1,0615	45,0	1,9
1,062	38,8	2,2
1,0625	31,5	2,5
1,063	23,7	2,7
1,0635	16,1	2,5
1,064	9,5	2,0
1,0645	4,5	1,4
1,065	1,2	0,9
1,0655	-1,4	0,6
1,066	-3,8	0,4
1,0665	-6,8	0,0
1,067	-10,3	-0,7
1,0675	-14,1	-1,6
1,068	-17,6	-2,5
1,0685	-19,9	-3,2
1,069	-20,5	-3,4
1,0695	-19,3	-3,3
1,07	-16,9	-3,2
1,0705	-13,9	-3,0
1,071	-11,0	-2,9
1,0715	-8,8	-2,7
1,072	-7,4	-2,4
1,0725	-6,9	-1,9
1,073	-6,7	-1,4
1,0735	-6,4	-0,9
1,074	-5,8	-0,6
1,0745	-4,7	-0,5
1,075	-2,1	-0,3
1,0755	2,9	-0,1
1,076	10,3	0,1
1,0765	18,7	0,2
1,077	26,5	-0,1
1,0775	32,7	-0,5
1,078	36,7	-1,0
1,0785	38,2	-1,5
1,079	37,2	-2,1
1,0795	34,0	-2,8
1,08	28,8	-3,2
1,0805	22,0	-3,3
1,081	14,2	-3,2
1,0815	6,2	-3,2
1,082	-1,1	-3,4
1,0825	-6,7	-3,7
1,083	-10,0	-4,0
1,0835	-10,8	-4,4
1,084	-9,4	-4,8
1,0845	-6,6	-5,1
1,085	-3,2	-5,1
1,0855	0,4	-4,8
1,086	4,0	-4,2
1,0865	7,3	-3,4
1,087	10,5	-2,7
1,0875	14,0	-2,2
1,088	17,9	-2,2
1,0885	22,2	-2,8
1,089	26,3	-3,9
1,0895	29,9	-4,9
1,09	32,8	-5,6
1,0905	34,3	-5,8
1,091	33,8	-5,7
1,0915	30,8	-5,6
1,092	26,1	-5,5
1,0925	22,4	-5,3
1,093	21,8	-5,1
1,0935	25,3	-5,1
1,094	32,3	-5,1
1,0945	41,4	-5,1
1,095	50,3	-5,0
1,0955	57,0	-4,8
1,096	59,6	-4,0
1,0965	57,5	-2,9
1,097	51,2	-1,9
1,0975	41,8	-1,0
1,098	30,5	-0,4
1,0985	18,5	0,2
1,099	6,5	0,4
1,0995	-4,7	0,2
1,1	-14,1	-0,3
1,1005	-21,1	-0,8
1,101	-25,5	-1,3
1,1015	-27,5	-1,3
1,102	-27,2	-1,0
1,1025	-25,2	-0,7
1,103	-22,9	-0,6
1,1035	-21,3	-0,7
1,104	-20,3	-0,9
1,1045	-18,5	-1,5
1,105	-15,2	-2,3
1,1055	-10,9	-3,2
1,106	-6,8	-4,0
1,1065	-3,4	-4,4
1,107	0,7	-4,5
1,1075	7,1	-4,3
1,108	15,9	-4,0
1,1085	25,0	-3,5
1,109	31,6	-3,1
1,1095	34,5	-3,0
1,11	34,2	-3,1
1,1105	31,7	-3,1
1,111	27,6	-2,9
1,1115	21,4	-2,3
1,112	12,7	-1,6
1,1125	1,5	-1,2
1,113	-11,0	-1,1
1,1135	-23,6	-1,1
1,114	-35,3	-1,5
1,1145	-45,4	-2,3
1,115	-52,9	-3,3
1,1155	-56,4	-4,3
1,116	-55,2	-5,1
1,1165	-48,9	-5,7
1,117	-38,9	-6,3
1,1175	-27,4	-6,9
1,118	-17,1	-7,1
1,1185	-9,0	-6,7
1,119	-2,8	-6,0
1,1195	3,7	-5,5
1,12	11,7	-5,2
1,1205	20,6	-5,2
1,121	28,6	-5,4
1,1215	34,6	-6,1
1,122	39,3	-7,0
1,1225	43,3	-7,8
1,123	46,3	-8,4
1,1235	47,6	-8,6
1,124	46,9	-8,6
1,1245	45,3	-8,2
1,125	43,8	-7,6
1,1255	42,3	-6,6
1,126	40,7	-5,5
1,1265	38,8	-4,5
1,127	36,9	-3,8
1,1275	35,0	-3,6
1,128	33,6	-3,6
1,1285	32,5	-4,0
1,129	31,2	-4,6
1,1295	29,4	-5,3
1,13	27,1	-5,9
1,1305	24,6	-6,3
1,131	22,2	-6,5
1,1315	20,0	-6,6
1,132	17,9	-6,8
1,1325	15,7	-7,3
1,133	13,6	-8,0
1,1335	11,9	-8,6
1,134	10,5	-8,8
1,1345	9,5	-8,7
1,135	9,9	-8,3
1,1355	12,9	-7,8
1,136	18,7	-7,2
1,1365	25,7	-6,3
1,137	31,9	-5,5
1,1375	35,6	-4,8
1,138	36,3	-4,2
1,1385	33,9	-4,1
1,139	28,8	-4,5
1,1395	21,2	-5,2
1,14	11,8	-5,6
1,1405	1,4	-5,4
1,141	-9,1	-4,8
1,1415	-18,8	-3,7
1,142	-27,1	-2,7
1,1425	-33,8	-1,8
1,143	-38,5	-1,3
1,1435	-40,9	-1,1
1,144	-41,3	-1,2
1,1445	-40,6	-1,6
1,145	-39,7	-2,2
1,1455	-38,8	-2,7
1,146	-37,5	-2,9
1,1465	-34,9	-2,8
1,147	-30,8	-2,7
1,1475	-25,5	-2,7
1,148	-20,2	-2,7
1,1485	-15,2	-3,0
1,149	-10,8	-3,7
1,1495	-6,3	-4,7
1,15	-1,4	-5,9
1,1505	3,7	-7,0
1,151	8,1	-7,8
1,1515	10,8	-8,3
1,152	11,3	-8,4
1,1525	9,8	-8,5
1,153	7,5	-8,7
1,1535	6,0	-9,0
1,154	6,2	-9,5
1,1545	7,7	-9,8
1,155	9,5	-10,0
1,1555	11,1	-9,9
1,156	12,1	-9,8
1,1565	12,0	-9,7
1,157	10,6	-9,9
1,1575	8,0	-10,4
1,158	4,9	-11,1
1,1585	1,8	-11,8
1,159	-1,4	-12,4
1,1595	-4,8	-12,9
1,16	-8,9	-13,5
1,1605	-13,6	-14,0
1,161	-18,3	-14,2
1,1615	-22,7	-14,1
1,162	-25,9	-13,6
1,1625	-27,2	-12,7
1,163	-26,4	-11,5
1,1635	-24,1	-10,2
1,164	-21,0	-8,9
1,1645	-17,8	-8,0
1,165	-14,3	-7,7
1,1655	-10,4	-8,1
1,166	-6,0	-9,0
1,1665	-1,5	-10,2
1,167	2,7	-11,1
1,1675	6,4	-11,6
1,168	9,3	-11,7
1,1685	11,2	-11,8
1,169	12,1	-12,1
1,1695	12,4	-12,4
1,17	12,6	-12,6
1,1705	12,8	-12,7
1,171	13,0	-12,9
1,1715	13,1	-13,3
1,172	13,2	-13,7
1,1725	13,2	-13,9
1,173	13,1	-13,9
1,1735	12,7	-13,7
1,174	11,6	-13,4
1,1745	9,6	-13,3
1,175	7,1	-13,3
1,1755	4,5	-13,2
1,176	2,9	-12,9
1,1765	3,0	-12,6
1,177	4,5	-12,3
1,1775	6,5	-12,5
1,178	7,8	-12,8
1,1785	7,8	-13,4
1,179	6,6	-13,9
1,1795	4,7	-14,2
1,18	2,5	-14,5
1,1805	0,3	-14,9
1,181	-1,3	-15,3
1,1815	-1,9	-15,5
1,182	-1,8	-15,7
1,1825	-1,3	-15,7
1,183	-1,1	-15,7
1,1835	-0,8	-15,5
1,184	-0,4	-15,0
1,1845	0,1	-14,2
1,185	0,6	-13,2
1,1855	1,3	-12,3
1,186	2,9	-11,8
1,1865	5,8	-11,5
1,187	9,3	-11,4
1,1875	13,1	-11,5
1,188	16,7	-11,8
1,1885	20,2	-12,6
1,189	23,6	-13,6
1,1895	26,5	-14,3
1,19	28,5	-14,4
1,1905	29,4	-14,2
1,191	29,1	-14,0
1,1915	27,9	-14,1
1,192	25,9	-14,3
1,1925	23,7	-14,5
1,193	21,1	-14,5
1,1935	18,5	-14,0
1,194	15,9	-13,2
1,1945	13,7	-12,0
1,195	11,9	-10,8
1,1955	10,4	-10,2
1,196	9,3	-10,1
1,1965	8,2	-10,1
1,197	7,1	-10,1
1,1975	6,0	-9,9
1,198	4,9	-9,7
1,1985	3,8	-9,7
1,199	2,3	-10,1
1,1995	0,3	-11,0
1,2	-1,8	-12,3
1,2005	-3,7	-14,1
1,201	-4,9	-15,7
1,2015	-4,9	-16,7
1,202	-2,7	-17,1
1,2025	2,4	-17,2
1,203	10,0	-17,2
1,2035	19,2	-17,3
1,204	29,3	-17,5
1,2045	38,8	-18,0
1,205	46,3	-18,4
1,2055	50,4	-18,6
1,206	50,4	-18,4
1,2065	45,0	-17,8
1,207	34,2	-16,7
1,2075	19,8	-15,0
1,208	4,2	-12,8
1,2085	-10,6	-10,4
1,209	-23,9	-8,2
1,2095	-35,6	-6,8
1,21	-45,4	-6,4
1,2105	-52,7	-7,0
1,211	-56,8	-8,2
1,2115	-58,0	-9,2
1,212	-56,9	-9,7
1,2125	-55,1	-9,7
1,213	-53,2	-9,3
1,2135	-50,8	-8,9
1,214	-46,9	-8,7
1,2145	-41,0	-8,5
1,215	-32,3	-8,4
1,2155	-19,9	-8,3
1,216	-4,1	-8,2
1,2165	13,6	-8,2
1,217	30,9	-8,3
1,2175	46,4	-8,4
1,218	58,7	-8,4
1,2185	66,6	-8,2
1,219	69,3	-8,0
1,2195	67,0	-8,0
1,22	60,3	-8,3
1,2205	50,4	-9,1
1,221	37,8	-10,3
1,2215	23,3	-11,7
1,222	7,8	-13,0
1,2225	-7,8	-13,8
1,223	-22,4	-14,0
1,2235	-34,9	-13,4
1,224	-44,6	-12,2
1,2245	-51,2	-10,8
1,225	-54,6	-9,6
1,2255	-55,2	-8,7
1,226	-54,4	-8,2
1,2265	-53,1	-7,8
1,227	-51,3	-7,7
1,2275	-47,8	-7,9
1,228	-41,8	-8,5
1,2285	-34,1	-9,2
1,229	-26,1	-9,9
1,2295	-18,6	-10,6
1,23	-11,8	-11,3
1,2305	-6,3	-11,9
1,231	-2,8	-12,3
1,2315	-2,1	-12,3
1,232	-4,3	-11,8
1,2325	-8,3	-11,2
1,233	-12,9	-10,6
1,2335	-17,1	-10,2
1,234	-20,4	-10,3
1,2345	-22,9	-10,4
1,235	-24,9	-10,5
1,2355	-26,3	-10,3
1,236	-26,4	-9,8
1,2365	-24,6	-9,3
1,237	-20,5	-8,9
1,2375	-14,8	-9,0
1,238	-8,1	-9,6
1,2385	-1,3	-10,7
1,239	5,0	-11,9
1,2395	9,9	-13,2
1,24	12,8	-14,2
1,2405	13,2	-14,9
1,241	12,4	-15,1
1,2415	12,0	-14,6
1,242	12,7	-13,4
1,2425	14,0	-11,9
1,243	14,5	-10,5
1,2435	13,2	-9,7
1,244	9,8	-9,7
1,2445	5,4	-10,2
1,245	1,0	-10,5
1,2455	-2,5	-10,3
1,246	-5,2	-9,2
1,2465	-7,2	-7,8
1,247	-8,3	-6,3
1,2475	-8,6	-5,4
1,248	-8,5	-5,0
1,2485	-8,4	-4,8
1,249	-8,4	-5,0
1,2495	-7,6	-5,5
1,25	-4,8	-6,3
1,2505	-0,1	-7,4
1,251	5,5	-8,3
1,2515	10,4	-8,9
1,252	13,8	-9,0
1,2525	15,8	-9,1
1,253	16,0	-9,5
1,2535	14,5	-10,3
1,254	11,7	-11,2
1,2545	7,6	-12,1
1,255	2,6	-13,1
1,2555	-2,8	-14,1
1,256	-7,9	-14,8
1,2565	-12,3	-14,9
1,257	-15,3	-14,5
1,2575	-16,5	-13,8
1,258	-15,8	-12,8
1,2585	-13,7	-11,9
1,259	-10,8	-11,2
1,2595	-7,9	-10,9
1,26	-5,2	-11,3
1,2605	-3,3	-12,4
1,261	-2,0	-13,7
1,2615	-1,4	-14,7
1,262	-1,0	-15,1
1,2625	-0,9	-14,8
1,263	-1,3	-14,2
1,2635	-2,1	-13,4
1,264	-2,8	-12,6
1,2645	-2,9	-11,8
1,265	-2,2	-11,3
1,2655	-1,3	-10,9
1,266	-0,9	-10,8
1,2665	-1,2	-11,2
1,267	-1,9	-12,0
1,2675	-2,8	-12,6
1,268	-3,7	-12,7
1,2685	-4,3	-12,3
1,269	-4,3	-11,8
1,2695	-3,5	-11,5
1,27	-2,2	-11,5
1,2705	-0,7	-11,5
1,271	0,5	-11,8
1,2715	1,1	-12,5
1,272	1,2	-13,6
1,2725	1,5	-14,7
1,273	2,2	-15,5
1,2735	3,3	-15,9
1,274	4,5	-16,3
1,2745	5,1	-16,7
1,275	5,1	-17,0
1,2755	4,6	-17,0
1,276	4,3	-16,6
1,2765	4,4	-15,7
1,277	4,8	-14,4
1,2775	4,9	-13,0
1,278	4,7	-11,6
1,2785	4,4	-10,5
1,279	4,7	-9,6
1,2795	5,1	-8,6
1,28	4,8	-7,4
1,2805	2,9	-6,3
1,281	-0,8	-5,5
1,2815	-5,7	-5,5
1,282	-11,0	-6,3
1,2825	-16,0	-7,3
1,283	-20,2	-8,2
1,2835	-23,0	-8,8
1,284	-24,2	-9,4
1,2845	-23,5	-10,0
1,285	-21,1	-10,8
1,2855	-17,4	-11,3
1,286	-13,1	-11,7
1,2865	-9,0	-11,9
1,287	-5,6	-12,2
1,2875	-3,2	-12,6
1,288	-2,0	-13,1
1,2885	-1,5	-13,5
1,289	-1,1	-13,8
1,2895	-0,3	-13,8
1,29	0,2	-13,5
1,2905	0,1	-13,0
1,291	-0,8	-12,4
1,2915	-2,3	-12,1
1,292	-4,2	-11,8
1,2925	-5,9	-11,5
1,293	-6,9	-11,3
1,2935	-6,3	-11,1
1,294	-3,8	-10,9
1,2945	0,1	-10,7
1,295	4,3	-10,4
1,2955	8,1	-10,0
1,296	11,0	-9,3
1,2965	13,1	-8,6
1,297	14,7	-7,8
1,2975	16,0	-7,2
1,298	17,4	-6,7
1,2985	19,1	-6,3
1,299	20,8	-6,0
1,2995	22,2	-5,8
1,3	22,7	-5,8
1,3005	22,5	-6,0
1,301	22,2	-6,4
1,3015	22,2	-6,7
1,302	22,6	-6,9
1,3025	22,6	-6,8
1,303	21,7	-6,8
1,3035	19,9	-7,0
1,304	17,5	-7,3
1,3045	15,0	-7,9
1,305	12,6	-8,7
1,3055	10,1	-9,8
1,306	7,7	-11,1
1,3065	5,4	-12,5
1,307	3,3	-13,6
1,3075	1,8	-14,0
1,308	1,2	-13,3
1,3085	1,7	-12,0
1,309	3,4	-10,2
1,3095	6,1	-8,7
1,31	9,3	-7,6
1,3105	12,3	-7,1
1,311	14,4	-6,8
1,3115	15,1	-6,4
1,312	14,5	-5,9
1,3125	12,6	-5,4
1,313	10,1	-5,2
1,3135	7,5	-5,7
1,314	5,1	-6,7
1,3145	2,7	-7,6
1,315	0,2	-8,0
1,3155	-2,3	-7,9
1,316	-4,3	-7,6
1,3165	-5,6	-7,4
1,317	-6,4	-7,3
1,3175	-6,7	-7,2
1,318	-6,5	-6,8
1,3185	-5,8	-6,2
1,319	-4,7	-5,8
1,3195	-3,6	-5,7
1,32	-2,8	-5,9
1,3205	-2,5	-6,5
1,321	-2,8	-7,2
1,3215	-3,0	-8,1
1,322	-2,3	-9,1
1,3225	0,1	-9,9
1,323	3,8	-10,0
1,3235	8,0	-9,6
1,324	11,7	-8,8
1,3245	14,7	-7,8
1,325	16,4	-6,8
1,3255	16,8	-5,9
1,326	15,7	-5,4
1,3265	13,7	-5,1
1,327	11,5	-4,8
1,3275	9,4	-4,1
1,328	7,3	-3,3
1,3285	4,9	-2,8
1,329	2,1	-3,0
1,3295	-0,3	-3,8
1,33	-1,2	-4,9
1,3305	0,6	-5,7
1,331	4,8	-6,0
1,3315	10,7	-6,0
1,332	17,6	-5,8
1,3325	25,2	-5,8
1,333	32,4	-6,1
1,3335	37,7	-6,8
1,334	39,6	-7,8
1,3345	37,3	-8,8
1,335	30,8	-9,3
1,3355	21,0	-9,7
1,336	9,8	-9,9
1,3365	-1,1	-10,4
1,337	-10,8	-11,0
1,3375	-19,0	-11,5
1,338	-25,3	-11,7
1,3385	-29,7	-11,3
1,339	-32,2	-10,5
1,3395	-32,7	-9,5
1,34	-31,1	-8,8
1,3405	-28,5	-8,5
1,341	-26,3	-8,6
1,3415	-24,4	-8,4
1,342	-20,4	-7,9
1,3425	-12,3	-7,3
1,343	0,1	-7,0
1,3435	14,7	-7,3
1,344	29,1	-7,9
1,3445	41,2	-8,8
1,345	49,5	-9,5
1,3455	52,7	-9,9
1,346	49,8	-10,2
1,3465	41,5	-10,8
1,347	30,9	-11,7
1,3475	21,7	-12,7
1,348	15,8	-13,3
1,3485	12,8	-13,5
1,349	11,3	-13,2
1,3495	11,1	-12,6
1,35	11,4	-11,8
1,3505	11,3	-11,3
1,351	9,9	-11,2
1,3515	6,8	-11,3
1,352	2,0	-11,5
1,3525	-4,7	-11,4
1,353	-13,3	-11,2
1,3535	-23,2	-11,1
1,354	-33,1	-11,7
1,3545	-41,7	-12,9
1,355	-48,0	-14,2
1,3555	-51,3	-14,9
1,356	-51,0	-15,2
1,3565	-46,6	-15,0
1,357	-39,3	-14,6
1,3575	-31,3	-13,8
1,358	-24,7	-12,8
1,3585	-20,4	-11,4
1,359	-17,4	-10,1
1,3595	-14,4	-8,8
1,36	-10,6	-7,6
1,3605	-6,6	-6,5
1,361	-2,9	-5,7
1,3615	0,2	-5,3
1,362	2,4	-5,2
1,3625	3,4	-5,0
1,363	2,5	-5,1
1,3635	-0,2	-5,5
1,364	-3,9	-6,5
1,3645	-7,3	-8,1
1,365	-9,3	-9,7
1,3655	-9,7	-10,9
1,366	-8,7	-11,8
1,3665	-7,1	-12,5
1,367	-5,1	-13,3
1,3675	-2,8	-14,0
1,368	-0,6	-14,1
1,3685	1,0	-13,4
1,369	1,9	-11,8
1,3695	2,4	-10,0
1,37	2,6	-8,3
1,3705	2,6	-7,0
1,371	2,5	-6,3
1,3715	2,2	-6,0
1,372	1,7	-6,4
1,3725	0,8	-7,1
1,373	-0,6	-8,0
1,3735	-2,2	-8,7
1,374	-3,5	-9,0
1,3745	-4,3	-9,0
1,375	-4,5	-8,7
1,3755	-4,1	-8,2
1,376	-3,3	-7,9
1,3765	-2,7	-8,0
1,377	-2,5	-8,3
1,3775	-2,7	-8,7
1,378	-3,2	-9,1
1,3785	-3,9	-9,5
1,379	-4,9	-9,6
1,3795	-6,1	-9,3
1,38	-7,3	-8,6
1,3805	-8,1	-7,8
1,381	-8,7	-6,6
1,3815	-9,5	-5,5
1,382	-11,3	-4,7
1,3825	-14,2	-4,6
1,383	-17,8	-5,2
1,3835	-21,2	-6,2
1,384	-23,6	-7,1
1,3845	-24,7	-7,3
1,385	-24,7	-6,9
1,3855	-23,7	-6,0
1,386	-21,4	-5,3
1,3865	-18,0	-5,1
1,387	-13,1	-5,2
1,3875	-6,9	-5,5
1,388	-0,2	-6,0
1,3885	6,3	-6,7
1,389	11,5	-7,5
1,3895	15,5	-8,4
1,39	18,3	-9,4
1,3905	20,3	-10,1
1,391	21,4	-10,3
1,3915	21,8	-10,1
1,392	22,3	-9,5
1,3925	23,6	-8,7
1,393	25,6	-7,7
1,3935	27,1	-6,6
1,394	26,6	-5,7
1,3945	23,6	-5,3
1,395	18,5	-5,4
1,3955	12,1	-5,9
1,396	4,8	-6,4
1,3965	-3,4	-6,5
1,397	-12,3	-6,2
1,3975	-21,1	-5,3
1,398	-28,2	-4,2
1,3985	-31,9	-3,0
1,399	-31,6	-2,3
1,3995	-27,8	-2,1
1,4	-22,5	-2,3
1,4005	-17,0	-2,7
1,401	-12,1	-2,9
1,4015	-8,3	-2,7
1,402	-5,3	-2,1
1,4025	-2,4	-1,4
1,403	1,0	-1,1
1,4035	4,9	-1,3
1,404	8,8	-1,9
1,4045	11,7	-2,9
1,405	13,3	-3,9
1,4055	13,2	-4,7
1,406	11,4	-5,0
1,4065	7,8	-5,2
1,407	2,5	-5,2
1,4075	-4,0	-5,3
1,408	-11,1	-5,3
1,4085	-18,0	-5,1
1,409	-23,8	-4,7
1,4095	-27,4	-4,3
1,41	-28,2	-4,0
1,4105	-26,5	-3,6
1,411	-22,5	-3,3
1,4115	-17,0	-3,2
1,412	-10,7	-3,5
1,4125	-4,3	-3,9
1,413	1,7	-4,3
1,4135	7,2	-4,3
1,414	12,0	-3,8
1,4145	16,2	-3,0
1,415	20,0	-2,2
1,4155	23,8	-1,8
1,416	27,4	-1,6
1,4165	29,5	-1,7
1,417	29,2	-2,0
1,4175	26,2	-2,2
1,418	21,4	-2,0
1,4185	16,1	-1,4
1,419	11,2	-0,8
1,4195	7,0	-0,8
1,42	3,5	-1,5
1,4205	0,2	-2,9
1,421	-2,8	-4,4
1,4215	-5,1	-5,7
1,422	-6,4	-6,6
1,4225	-7,5	-7,3
1,423	-9,2	-7,7
1,4235	-11,8	-7,9
1,424	-14,4	-8,0
1,4245	-16,2	-8,0
1,425	-16,9	-7,9
1,4255	-16,7	-7,8
1,426	-15,9	-7,8
1,4265	-14,8	-7,9
1,427	-13,7	-7,8
1,4275	-12,8	-7,7
1,428	-11,1	-7,5
1,4285	-6,6	-7,3
1,429	2,2	-7,1
1,4295	14,8	-6,7
1,43	29,3	-6,1
1,4305	43,3	-5,5
1,431	55,3	-5,1
1,4315	64,1	-4,9
1,432	68,5	-4,9
1,4325	67,8	-5,1
1,433	61,8	-5,4
1,4335	50,8	-6,1
1,434	35,2	-7,0
1,4345	16,8	-7,7
1,435	-1,9	-8,0
1,4355	-18,4	-7,9
1,436	-31,2	-7,5
1,4365	-39,8	-6,9
1,437	-45,1	-6,4
1,4375	-47,4	-5,8
1,438	-47,1	-5,3
1,4385	-44,7	-4,9
1,439	-41,1	-4,6
1,4395	-38,0	-4,4
1,44	-35,7	-4,2
1,4405	-33,3	-4,1
1,441	-28,9	-4,1
1,4415	-21,1	-3,8
1,442	-10,3	-3,4
1,4425	2,3	-2,8
1,443	14,7	-2,7
1,4435	25,3	-2,8
1,444	32,5	-3,2
1,4445	35,6	-3,7
1,445	34,5	-4,1
1,4455	29,8	-4,3
1,446	22,5	-4,3
1,4465	13,2	-4,0
1,447	2,8	-3,9
1,4475	-7,6	-3,9
1,448	-17,0	-4,3
1,4485	-24,5	-5,4
1,449	-29,6	-7,0
1,4495	-32,2	-8,7
1,45	-32,5	-10,0
1,4505	-30,8	-10,7
1,451	-27,4	-10,7
1,4515	-22,0	-9,7
1,452	-13,8	-8,2
1,4525	-2,8	-6,4
1,453	10,0	-4,9
1,4535	22,7	-4,0
1,454	34,3	-3,6
1,4545	44,0	-3,4
1,455	50,9	-3,3
1,4555	54,0	-2,8
1,456	53,3	-2,3
1,4565	49,0	-2,0
1,457	41,2	-1,9
1,4575	30,1	-2,1
1,458	16,4	-2,3
1,4585	1,2	-2,5
1,459	-13,5	-2,7
1,4595	-25,6	-2,9
1,46	-33,9	-3,5
1,4605	-37,7	-4,1
1,461	-36,9	-4,5
1,4615	-32,1	-4,2
1,462	-24,6	-3,6
1,4625	-16,7	-2,7
1,463	-10,3	-2,1
1,4635	-5,8	-2,1
1,464	-2,0	-2,5
1,4645	2,3	-3,0
1,465	6,9	-3,4
1,4655	11,3	-3,5
1,466	14,8	-3,7
1,4665	17,9	-3,8
1,467	20,8	-3,9
1,4675	23,7	-4,1
1,468	25,8	-4,2
1,4685	26,7	-4,3
1,469	26,8	-4,3
1,4695	27,7	-4,0
1,47	30,2	-3,7
1,4705	34,0	-3,3
1,471	38,1	-3,2
1,4715	41,5	-3,3
1,472	44,0	-3,8
1,4725	45,7	-4,4
1,473	46,4	-5,2
1,4735	46,0	-5,8
1,474	43,9	-6,2
1,4745	40,0	-6,3
1,475	34,2	-6,0
1,4755	27,3	-5,3
1,476	20,0	-4,2
1,4765	12,9	-3,2
1,477	6,3	-2,6
1,4775	0,0	-2,3
1,478	-6,1	-1,8
1,4785	-11,3	-0,9
1,479	-15,1	0,4
1,4795	-17,7	1,9
1,48	-19,8	3,2
1,4805	-21,8	3,8
1,481	-23,1	3,8
1,4815	-22,7	3,2
1,482	-20,7	2,3
1,4825	-17,8	1,4
1,483	-14,7	0,6
1,4835	-11,9	-0,2
1,484	-9,9	-0,9
1,4845	-9,0	-1,3
1,485	-9,3	-1,4
1,4855	-10,6	-1,3
1,486	-12,1	-1,4
1,4865	-12,8	-1,8
1,487	-12,3	-2,4
1,4875	-10,2	-3,0
1,488	-7,3	-3,5
1,4885	-4,4	-3,7
1,489	-2,5	-3,8
1,4895	-1,7	-4,0
1,49	-1,5	-4,1
1,4905	-1,2	-4,0
1,491	-0,6	-3,5
1,4915	0,2	-2,8
1,492	0,7	-1,7
1,4925	1,3	-0,6
1,493	2,7	0,0
1,4935	5,2	0,1
1,494	7,9	-0,2
1,4945	10,0	-0,5
1,495	11,0	-0,7
1,4955	11,3	-0,8
1,496	11,1	-1,0
1,4965	10,5	-1,1
1,497	9,4	-1,5
1,4975	7,8	-2,0
1,498	5,9	-2,7
1,4985	3,8	-3,3
1,499	1,3	-3,9
1,4995	-1,3	-4,6
1,5	-3,6	-5,6
1,5005	-4,7	-6,8
1,501	-4,6	-7,7
1,5015	-3,6	-7,8
1,502	-2,1	-7,3
1,5025	0,2	-6,5
1,503	3,3	-5,7
1,5035	6,8	-4,9
1,504	10,3	-4,3
1,5045	13,7	-4,0
1,505	17,2	-3,8
1,5055	20,9	-3,9
1,506	24,7	-4,2
1,5065	27,2	-4,5
1,507	27,5	-4,6
1,5075	25,5	-4,7
1,508	22,4	-4,8
1,5085	19,3	-4,9
1,509	17,2	-5,2
1,5095	16,0	-5,5
1,51	15,3	-6,0
1,5105	14,0	-6,6
1,511	11,7	-7,0
1,5115	8,3	-7,1
1,512	4,2	-6,9
1,5125	-0,3	-6,6
1,513	-5,0	-6,7
1,5135	-9,4	-7,2
1,514	-13,1	-7,5
1,5145	-15,7	-7,5
1,515	-16,8	-7,1
1,5155	-16,0	-6,5
1,516	-13,0	-5,7
1,5165	-8,2	-4,9
1,517	-2,7	-4,3
1,5175	2,1	-3,7
1,518	5,1	-3,0
1,5185	5,4	-2,3
1,519	3,0	-1,5
1,5195	-1,2	-1,0
1,52	-6,1	-1,2
1,5205	-10,7	-2,0
1,521	-14,8	-3,3
1,5215	-18,5	-4,4
1,522	-21,9	-5,3
1,5225	-24,9	-5,9
1,523	-27,3	-6,1
1,5235	-28,6	-5,9
1,524	-28,2	-5,5
1,5245	-26,1	-4,9
1,525	-22,7	-4,3
1,5255	-18,6	-3,6
1,526	-14,3	-3,0
1,5265	-10,6	-2,9
1,527	-7,7	-3,3
1,5275	-5,8	-3,7
1,528	-4,1	-4,1
1,5285	-2,1	-4,2
1,529	0,3	-4,1
1,5295	2,4	-4,0
1,53	4,1	-3,7
1,5305	5,2	-3,3
1,531	6,0	-3,0
1,5315	6,7	-2,9
1,532	7,7	-3,1
1,5325	9,4	-3,3
1,533	12,1	-3,4
1,5335	15,6	-3,8
1,534	18,8	-4,4
1,5345	21,2	-5,1
1,535	23,2	-5,7
1,5355	26,6	-6,4
1,536	32,4	-7,3
1,5365	40,3	-8,3
1,537	48,9	-9,4
1,5375	57,1	-10,3
1,538	64,3	-10,9
1,5385	69,9	-11,3
1,539	73,0	-11,3
1,5395	72,5	-10,8
1,54	67,4	-9,8
1,5405	56,5	-8,1
1,541	40,4	-6,2
1,5415	20,8	-4,3
1,542	0,6	-2,6
1,5425	-17,0	-1,2
1,543	-29,9	-0,3
1,5435	-37,7	-0,0
1,544	-41,7	-0,3
1,5445	-43,1	-0,6
1,545	-42,6	-0,7
1,5455	-40,6	-0,3
1,546	-38,3	0,5
1,5465	-36,7	1,6
1,547	-36,1	2,7
1,5475	-35,5	3,6
1,548	-34,1	4,1
1,5485	-31,8	4,0
1,549	-28,9	3,4
1,5495	-26,1	2,2
1,55	-23,7	0,4
1,5505	-22,1	-1,8
1,551	-21,4	-4,0
1,5515	-22,2	-5,8
1,552	-24,1	-7,1
1,5525	-26,0	-7,7
1,553	-26,8	-7,6
1,5535	-25,9	-7,0
1,554	-23,4	-6,0
1,5545	-19,6	-5,0
1,555	-14,7	-4,2
1,5555	-9,4	-3,8
1,556	-4,6	-3,8
1,5565	-1,1	-4,2
1,557	1,2	-4,6
1,5575	3,1	-4,7
1,558	5,2	-4,5
1,5585	7,6	-4,0
1,559	10,1	-3,4
1,5595	12,2	-2,9
1,56	14,1	-2,6
1,5605	15,6	-2,6
1,561	16,4	-2,7
1,5615	16,4	-2,8
1,562	15,5	-2,6
1,5625	13,9	-2,0
1,563	11,7	-1,0
1,5635	9,7	0,1
1,564	8,4	0,6
1,5645	8,5	0,4
1,565	10,5	-0,3
1,5655	14,4	-0,8
1,566	19,3	-0,7
1,5665	23,4	-0,1
1,567	25,2	0,5
1,5675	23,7	0,8
1,568	18,7	0,9
1,5685	11,3	0,7
1,569	2,8	0,2
1,5695	-5,6	-0,4
1,57	-13,0	-1,1
1,5705	-19,4	-1,7
1,571	-24,5	-1,9
1,5715	-27,8	-1,8
1,572	-29,0	-1,6
1,5725	-28,2	-1,5
1,573	-26,3	-1,5
1,5735	-24,4	-1,6
1,574	-23,0	-1,9
1,5745	-22,4	-2,4
1,575	-22,4	-3,2
1,5755	-22,9	-4,3
1,576	-23,9	-5,3
1,5765	-24,6	-6,1
1,577	-22,9	-6,2
1,5775	-17,3	-5,8
1,578	-8,1	-5,3
1,5785	2,8	-4,9
1,579	13,0	-4,7
1,5795	22,0	-4,7
1,58	28,9	-4,8
1,5805	32,6	-5,2
1,581	31,9	-5,8
1,5815	26,5	-6,3
1,582	17,1	-6,4
1,5825	5,0	-6,2
1,583	-8,8	-5,8
1,5835	-23,2	-5,6
1,584	-37,6	-5,7
1,5845	-50,9	-5,8
1,585	-61,6	-5,8
1,5855	-68,2	-5,5
1,586	-69,7	-5,2
1,5865	-66,3	-5,0
1,587	-59,0	-5,0
1,5875	-49,6	-5,2
1,588	-40,3	-5,2
1,5885	-32,2	-4,8
1,589	-25,5	-3,9
1,5895	-19,4	-2,9
1,59	-13,3	-2,3
1,5905	-7,5	-2,0
1,591	-2,1	-2,1
1,5915	2,8	-2,3
1,592	7,1	-2,6
1,5925	10,3	-3,0
1,593	11,8	-3,5
1,5935	11,0	-4,0
1,594	8,5	-4,3
1,5945	5,1	-4,4
1,595	1,7	-4,3
1,5955	-1,3	-4,1
1,596	-3,4	-3,5
1,5965	-4,4	-2,5
1,597	-4,2	-1,5
1,5975	-2,8	-0,7
1,598	-0,2	-0,3
1,5985	3,6	-0,2
1,599	8,0	-0,1
1,5995	11,8	-0,1
1,6	14,0	-0,2
1,6005	14,3	-0,4
1,601	12,9	-0,7
1,6015	10,7	-0,8
1,602	8,0	-1,2
1,6025	5,1	-1,8
1,603	2,2	-2,8
1,6035	-0,8	-3,7
1,604	-3,6	-4,4
1,6045	-5,9	-4,6
1,605	-7,3	-4,3
1,6055	-7,9	-3,7
1,606	-7,9	-3,1
1,6065	-7,8	-3,0
1,607	-8,0	-3,4
1,6075	-8,4	-4,1
1,608	-8,8	-4,6
1,6085	-8,8	-4,7
1,609	-8,6	-4,6
1,6095	-8,5	-4,7
1,61	-8,9	-4,9
1,6105	-9,9	-5,3
1,611	-11,6	-5,6
1,6115	-14,2	-5,7
1,612	-17,1	-5,2
1,6125	-18,8	-4,3
1,613	-17,8	-3,3
1,6135	-13,6	-2,4
1,614	-7,2	-1,9
1,6145	-0,7	-1,5
1,615	4,4	-1,2
1,6155	7,4	-1,0
1,616	8,6	-0,8
1,6165	8,8	-0,9
1,617	8,3	-1,3
1,6175	7,0	-1,6
1,618	4,5	-1,8
1,6185	0,8	-1,8
1,619	-3,7	-1,6
1,6195	-8,6	-1,2
1,62	-13,0	-0,9
1,6205	-16,4	-0,6
1,621	-18,4	-0,4
1,6215	-19,2	-0,3
1,622	-19,3	-0,4
1,6225	-19,1	-0,6
1,623	-19,1	-0,8
1,6235	-19,4	-0,8
1,624	-20,1	-0,7
1,6245	-20,8	-0,5
1,625	-21,0	-0,4
1,6255	-20,2	-0,5
1,626	-18,5	-0,4
1,6265	-16,2	-0,4
1,627	-13,9	-0,5
1,6275	-11,9	-0,8
1,628	-10,2	-1,2
1,6285	-8,7	-1,8
1,629	-7,4	-2,3
1,6295	-6,6	-2,4
1,63	-6,3	-2,2
1,6305	-6,4	-1,8
1,631	-7,0	-1,4
1,6315	-8,0	-1,2
1,632	-9,5	-1,5
1,6325	-11,1	-2,4
1,633	-12,5	-3,7
1,6335	-13,0	-5,0
1,634	-12,3	-6,0
1,6345	-10,4	-6,3
1,635	-7,9	-6,1
1,6355	-5,3	-5,6
1,636	-3,0	-5,0
1,6365	-1,2	-4,4
1,637	0,3	-4,0
1,6375	1,5	-4,0
1,638	2,7	-4,2
1,6385	4,1	-4,5
1,639	5,5	-4,6
1,6395	7,0	-4,4
1,64	8,4	-3,8
1,6405	9,4	-2,8
1,641	10,2	-1,6
1,6415	10,4	-0,1
1,642	10,2	1,3
1,6425	9,3	2,6
1,643	7,6	3,2
1,6435	5,1	3,0
1,644	1,4	2,1
1,6445	-3,2	0,7
1,645	-8,2	-0,6
1,6455	-12,6	-1,2
1,646	-15,5	-1,0
1,6465	-16,4	0,0
1,647	-15,2	1,3
1,6475	-12,2	2,2
1,648	-7,8	2,5
1,6485	-2,6	2,0
1,649	3,2	0,7
1,6495	8,9	-1,1
1,65	13,9	-3,2
1,6505	17,8	-5,2
1,651	20,8	-6,7
1,6515	24,0	-7,3
1,652	28,0	-7,2
1,6525	32,6	-6,7
1,653	36,9	-6,1
1,6535	39,9	-5,5
1,654	41,4	-4,7
1,6545	41,1	-3,6
1,655	38,4	-2,0
1,6555	33,1	-0,1
1,656	25,9	1,7
1,6565	17,4	3,0
1,657	8,5	3,6
1,6575	0,2	3,2
1,658	-7,1	2,3
1,6585	-13,2	1,2
1,659	-18,3	0,4
1,6595	-22,4	-0,0
1,66	-25,6	-0,2
1,6605	-28,1	-0,3
1,661	-30,2	-0,5
1,6615	-32,3	-0,6
1,662	-34,7	-0,6
1,6625	-37,3	-0,5
1,663	-40,3	-0,2
1,6635	-43,1	0,0
1,664	-45,2	0,1
1,6645	-46,4	0,0
1,665	-46,4	-0,2
1,6655	-45,1	-0,3
1,666	-42,1	-0,5
1,6665	-36,2	-0,9
1,667	-26,1	-1,4
1,6675	-11,4	-2,1
1,668	6,6	-2,8
1,6685	25,7	-3,4
1,669	43,6	-3,8
1,6695	58,9	-3,9
1,67	70,0	-3,9
1,6705	75,8	-4,2
1,671	76,0	-4,7
1,6715	70,5	-5,4
1,672	59,6	-6,3
1,6725	44,4	-6,9
1,673	27,0	-7,3
1,6735	9,6	-7,2
1,674	-6,2	-6,5
1,6745	-19,4	-5,3
1,675	-29,7	-3,8
1,6755	-37,3	-2,3
1,676	-42,2	-1,4
1,6765	-44,5	-1,3
1,677	-44,1	-1,7
1,6775	-41,8	-2,1
1,678	-38,7	-2,2
1,6785	-34,5	-2,0
1,679	-28,2	-1,6
1,6795	-19,1	-1,2
1,68	-8,3	-1,2
1,6805	2,4	-1,8
1,681	12,4	-2,7
1,6815	21,9	-3,8
1,682	31,4	-4,8
1,6825	40,3	-5,5
1,683	47,4	-5,8
1,6835	51,5	-5,9
1,684	52,1	-5,7
1,6845	49,3	-5,1
1,685	43,9	-4,1
1,6855	36,8	-2,4
1,686	28,3	-0,5
1,6865	18,3	1,2
1,687	6,7	2,7
1,6875	-6,6	3,9
1,688	-20,5	5,2
1,6885	-33,4	6,4
1,689	-43,7	7,2
1,6895	-50,8	7,1
1,69	-54,8	6,5
1,6905	-56,6	5,5
1,691	-56,8	4,3
1,6915	-56,0	3,0
1,692	-54,7	1,3
1,6925	-52,8	-0,4
1,693	-50,1	-2,1
1,6935	-46,3	-3,3
1,694	-41,7	-4,0
1,6945	-36,8	-4,3
1,695	-32,7	-4,2
1,6955	-29,6	-3,7
1,696	-27,1	-2,7
1,6965	-24,8	-1,4
1,697	-22,8	-0,2
1,6975	-21,5	0,6
1,698	-20,5	1,0
1,6985	-18,9	1,0
1,699	-15,4	0,9
1,6995	-10,1	0,6
1,7	-3,8	0,2
1,7005	1,8	-0,3
1,701	5,6	-0,6
1,7015	7,3	-0,7
1,702	6,9	-0,7
1,7025	4,5	-0,8
1,703	0,0	-1,0
1,7035	-6,3	-1,3
1,704	-13,2	-1,5
1,7045	-19,1	-1,5
1,705	-23,1	-1,6
1,7055	-25,1	-1,9
1,706	-25,6	-2,7
1,7065	-24,9	-3,9
1,707	-23,3	-5,1
1,7075	-20,9	-6,0
1,708	-17,7	-6,3
1,7085	-13,7	-6,2
1,709	-9,1	-5,7
1,7095	-4,8	-5,3
1,71	-1,5	-5,0
1,7105	0,6	-4,7
1,711	1,9	-4,5
1,7115	2,8	-4,1
1,712	3,5	-3,4
1,7125	4,0	-2,3
1,713	4,3	-0,8
1,7135	4,8	0,8
1,714	5,8	2,0
1,7145	6,5	2,5
1,715	6,3	2,2
1,7155	5,2	1,3
1,716	3,5	0,0
1,7165	2,1	-0,9
1,717	1,0	-1,4
1,7175	0,0	-1,2
1,718	-1,0	-0,4
1,7185	-1,8	0,7
1,719	-1,6	1,6
1,7195	-0,2	2,2
1,72	1,9	2,1
1,7205	4,1	1,1
1,721	5,6	-0,4
1,7215	6,4	-2,2
1,722	6,5	-3,9
1,7225	6,0	-5,2
1,723	4,9	-5,8
1,7235	3,2	-5,7
1,724	1,5	-4,9
1,7245	0,2	-3,8
1,725	-0,3	-2,6
1,7255	-0,1	-1,7
1,726	0,2	-1,2
1,7265	0,3	-1,0
1,727	-0,3	-1,1
1,7275	-1,3	-1,3
1,728	-2,5	-1,6
1,7285	-3,6	-2,2
1,729	-4,5	-2,9
1,7295	-5,5	-3,8
1,73	-6,4	-4,6
1,7305	-7,3	-5,1
1,731	-8,0	-5,4
1,7315	-8,5	-5,7
1,732	-8,8	-5,9
1,7325	-9,0	-6,3
1,733	-9,0	-6,7
1,7335	-8,6	-7,2
1,734	-8,0	-7,4
1,7345	-7,6	-7,1
1,735	-7,7	-6,3
1,7355	-8,3	-5,2
1,736	-9,1	-3,8
1,7365	-9,8	-2,4
1,737	-10,3	-1,2
1,7375	-9,8	-0,3
1,738	-7,7	0,0
1,7385	-3,7	0,0
1,739	1,7	-0,3
1,7395	7,3	-0,9
1,74	11,7	-1,8
1,7405	14,2	-2,7
1,741	15,3	-3,3
1,7415	15,3	-3,4
1,742	14,9	-3,1
1,7425	14,2	-2,6
1,743	13,1	-2,3
1,7435	11,4	-2,3
1,744	9,5	-2,2
1,7445	8,2	-2,0
1,745	8,2	-1,7
1,7455	9,5	-1,3
1,746	11,6	-0,9
1,7465	13,8	-0,8
1,747	15,6	-1,0
1,7475	16,5	-1,4
1,748	16,7	-1,8
1,7485	16,2	-2,3
1,749	14,7	-3,0
1,7495	11,9	-3,7
1,75	7,7	-4,2
1,7505	2,4	-4,5
1,751	-3,2	-4,5
1,7515	-8,6	-4,2
1,752	-13,2	-3,4
1,7525	-16,9	-2,5
1,753	-19,6	-1,6
1,7535	-20,8	-1,1
1,754	-19,8	-1,2
1,7545	-16,8	-1,8
1,755	-12,7	-2,8
1,7555	-8,6	-3,8
1,756	-4,6	-4,8
1,7565	-0,4	-5,6
1,757	4,5	-6,3
1,7575	9,4	-6,8
1,758	13,2	-7,0
1,7585	15,4	-6,4
1,759	16,8	-5,4
1,7595	17,5	-4,6
1,76	17,0	-4,4
1,7605	14,7	-4,6
1,761	11,0	-4,7
1,7615	7,5	-4,4
1,762	5,8	-3,6
1,7625	5,8	-2,4
1,763	6,6	-1,3
1,7635	7,1	-0,3
1,764	6,3	0,1
1,7645	4,4	0,0
1,765	1,6	-0,2
1,7655	-1,8	-0,2
1,766	-5,5	-0,2
1,7665	-9,0	-0,5
1,767	-11,5	-1,3
1,7675	-13,2	-2,2
1,768	-14,1	-2,7
1,7685	-14,8	-2,8
1,769	-15,3	-2,2
1,7695	-15,8	-1,0
1,77	-16,4	0,6
1,7705	-17,2	2,2
1,771	-18,0	2,9
1,7715	-18,0	2,6
1,772	-15,4	1,5
1,7725	-8,7	0,1
1,773	2,0	-1,3
1,7735	14,7	-2,3
1,774	27,4	-3,0
1,7745	38,5	-3,3
1,775	46,8	-3,3
1,7755	51,5	-3,0
1,776	52,1	-2,5
1,7765	48,2	-2,4
1,777	39,7	-2,8
1,7775	27,3	-3,7
1,778	12,5	-4,6
1,7785	-1,2	-5,2
1,779	-9,9	-5,4
1,7795	-11,5	-5,2
1,78	-6,7	-4,8
1,7805	1,3	-4,5
1,781	9,8	-4,1
1,7815	17,1	-3,7
1,782	22,3	-3,4
1,7825	24,3	-3,0
1,783	21,4	-2,3
1,7835	12,8	-1,6
1,784	-0,7	-1,1
1,7845	-17,3	-0,5
1,785	-35,2	0,4
1,7855	-52,7	1,4
1,786	-68,0	2,3
1,7865	-79,6	2,8
1,787	-86,1	2,6
1,7875	-87,3	2,0
1,788	-83,6	1,3
1,7885	-76,0	0,8
1,789	-65,0	0,7
1,7895	-51,4	1,0
1,79	-36,6	1,5
1,7905	-21,7	2,2
1,791	-7,4	2,8
1,7915	6,3	2,8
1,792	18,7	2,4
1,7925	28,6	1,5
1,793	35,5	0,4
1,7935	39,6	-0,7
1,794	41,7	-1,6
1,7945	42,1	-2,3
1,795	40,6	-2,8
1,7955	36,9	-2,8
1,796	31,3	-2,6
1,7965	24,2	-2,0
1,797	16,4	-1,0
1,7975	8,5	0,1
1,798	1,2	0,7
1,7985	-5,4	0,3
1,799	-11,4	-1,1
1,7995	-16,9	-2,9
1,8	-21,4	-4,4
1,8005	-24,4	-5,0
1,801	-25,6	-4,6
1,8015	-25,4	-3,5
1,802	-24,2	-2,4
1,8025	-22,6	-1,4
1,803	-21,2	-0,8
1,8035	-20,8	-0,3
1,804	-21,5	-0,2
1,8045	-23,1	-0,6
1,805	-24,6	-1,6
1,8055	-25,2	-2,8
1,806	-24,3	-3,8
1,8065	-21,8	-4,4
1,807	-18,0	-4,4
1,8075	-13,1	-4,0
1,808	-7,8	-3,3
1,8085	-1,9	-2,6
1,809	5,0	-2,3
1,8095	12,7	-2,3
1,81	20,1	-2,8
1,8105	25,7	-3,5
1,811	28,4	-4,0
1,8115	28,7	-4,3
1,812	27,3	-4,2
1,8125	25,4	-3,7
1,813	23,8	-2,9
1,8135	23,2	-1,8
1,814	23,2	-0,2
1,8145	23,6	1,6
1,815	23,8	3,3
1,8155	23,6	4,3
1,816	22,8	4,8
1,8165	21,9	4,9
1,817	20,8	4,9
1,8175	19,2	4,8
1,818	16,5	4,8
1,8185	12,5	4,8
1,819	7,2	5,0
1,8195	1,2	5,2
1,82	-4,3	5,3
1,8205	-7,9	5,2
1,821	-8,9	4,9
1,8215	-7,7	4,4
1,822	-4,7	3,8
1,8225	-1,2	3,2
1,823	1,5	2,3
1,8235	2,4	0,9
1,824	1,5	-1,1
1,8245	-0,3	-3,4
1,825	-2,3	-5,3
1,8255	-4,2	-6,5
1,826	-5,7	-6,7
1,8265	-6,6	-6,2
1,827	-6,9	-5,4
1,8275	-6,3	-4,6
1,828	-4,8	-3,7
1,8285	-2,9	-2,8
1,829	-1,6	-1,5
1,8295	-1,1	0,0
1,83	-1,2	1,3
1,8305	-0,9	2,1
1,831	0,4	2,3
1,8315	3,0	2,3
1,832	6,5	2,0
1,8325	10,0	1,5
1,833	12,9	0,7
1,8335	14,6	-0,5
1,834	15,1	-1,9
1,8345	14,2	-2,8
1,835	11,9	-3,0
1,8355	8,5	-2,9
1,836	4,4	-2,7
1,8365	0,3	-2,6
1,837	-2,5	-2,6
1,8375	-3,1	-2,8
1,838	-1,4	-3,2
1,8385	1,9	-3,7
1,839	5,8	-4,2
1,8395	9,7	-4,4
1,84	12,9	-4,3
1,8405	14,9	-4,1
1,841	15,6	-3,8
1,8415	15,2	-3,5
1,842	13,9	-3,0
1,8425	11,8	-2,6
1,843	8,9	-2,5
1,8435	5,3	-2,8
1,844	1,3	-3,5
1,8445	-2,4	-4,3
1,845	-5,6	-4,9
1,8455	-7,7	-5,1
1,846	-8,6	-4,7
1,8465	-8,1	-3,9
1,847	-6,3	-3,2
1,8475	-3,7	-2,7
1,848	-0,9	-2,6
1,8485	1,7	-2,9
1,849	4,3	-3,4
1,8495	7,0	-4,3
1,85	9,9	-5,3
1,8505	12,8	-6,3
1,851	15,1	-6,7
1,8515	16,7	-6,8
1,852	17,3	-7,0
1,8525	17,2	-7,6
1,853	16,5	-8,3
1,8535	15,1	-8,8
1,854	13,3	-8,7
1,8545	11,2	-8,2
1,855	8,8	-7,3
1,8555	6,2	-6,3
1,856	3,4	-5,2
1,8565	0,5	-3,7
1,857	-2,3	-1,8
1,8575	-5,2	-0,1
1,858	-8,1	1,1
1,8585	-11,2	1,5
1,859	-13,9	1,4
1,8595	-16,0	1,0
1,86	-17,4	0,4
1,8605	-18,3	-0,5
1,861	-19,0	-1,7
1,8615	-19,2	-2,7
1,862	-18,6	-3,5
1,8625	-17,3	-4,1
1,863	-15,5	-4,4
1,8635	-13,9	-4,7
1,864	-13,0	-4,9
1,8645	-12,7	-5,3
1,865	-12,3	-6,0
1,8655	-11,1	-6,7
1,866	-9,1	-7,3
1,8665	-6,7	-7,9
1,867	-4,3	-8,3
1,8675	-2,3	-8,4
1,868	-1,0	-8,3
1,8685	-0,4	-8,0
1,869	-0,4	-7,6
1,8695	-0,3	-7,2
1,87	1,0	-6,8
1,8705	4,0	-6,6
1,871	8,4	-6,6
1,8715	13,1	-7,0
1,872	16,9	-7,6
1,8725	19,0	-8,1
1,873	19,2	-8,4
1,8735	17,9	-8,4
1,874	15,4	-8,3
1,8745	12,1	-8,3
1,875	7,7	-8,3
1,8755	2,6	-8,4
1,876	-3,1	-8,6
1,8765	-8,7	-8,8
1,877	-13,5	-8,8
1,8775	-17,1	-8,6
1,878	-18,9	-8,1
1,8785	-18,6	-7,6
1,879	-15,9	-7,2
1,8795	-11,2	-6,7
1,88	-5,3	-6,3
1,8805	0,9	-5,6
1,881	6,4	-4,8
1,8815	10,6	-4,0
1,882	13,7	-3,4
1,8825	16,0	-3,3
1,883	17,9	-4,2
1,8835	19,4	-5,8
1,884	20,3	-7,5
1,8845	20,8	-8,8
1,885	21,3	-9,5
1,8855	22,1	-9,4
1,886	23,2	-9,1
1,8865	24,3	-8,8
1,887	25,2	-8,7
1,8875	25,7	-9,0
1,888	25,3	-9,6
1,8885	24,2	-10,5
1,889	22,7	-11,2
1,8895	21,3	-11,6
1,89	20,4	-11,4
1,8905	20,1	-11,0
1,891	20,2	-10,3
1,8915	20,1	-9,5
1,892	19,1	-8,4
1,8925	17,1	-7,2
1,893	14,5	-6,0
1,8935	11,9	-5,0
1,894	9,2	-4,3
1,8945	6,4	-3,9
1,895	3,5	-3,9
1,8955	0,5	-4,0
1,896	-2,7	-4,2
1,8965	-6,0	-4,4
1,897	-8,5	-4,6
1,8975	-9,2	-4,7
1,898	-7,9	-4,5
1,8985	-5,2	-4,3
1,899	-2,3	-4,1
1,8995	0,2	-4,0
1,9	2,1	-4,1
1,9005	3,4	-4,3
1,901	4,0	-4,5
1,9015	3,9	-4,5
1,902	3,4	-4,4
1,9025	3,2	-4,2
1,903	3,6	-4,1
1,9035	4,4	-4,1
1,904	5,1	-4,1
1,9045	5,3	-4,3
1,905	5,0	-4,7
1,9055	4,0	-5,2
1,906	2,4	-5,8
1,9065	0,5	-5,9
1,907	-1,3	-5,6
1,9075	-2,8	-5,0
1,908	-3,3	-4,5
1,9085	-2,0	-4,3
1,909	1,5	-4,3
1,9095	6,8	-4,4
1,91	12,8	-4,5
1,9105	18,0	-4,8
1,911	21,6	-4,9
1,9115	23,4	-4,8
1,912	23,7	-4,6
1,9125	22,9	-4,1
1,913	21,8	-3,6
1,9135	21,5	-3,2
1,914	22,7	-3,0
1,9145	25,5	-3,1
1,915	29,2	-3,4
1,9155	32,8	-3,7
1,916	36,1	-3,7
1,9165	40,0	-3,4
1,917	45,4	-3,2
1,9175	52,3	-3,2
1,918	59,4	-3,3
1,9185	66,9	-3,7
1,919	76,5	-4,2
1,9195	88,1	-4,7
1,92	99,3	-5,1
1,9205	106,7	-5,5
1,921	108,1	-5,8
1,9215	103,1	-6,3
1,922	91,9	-6,8
1,9225	75,4	-7,3
1,923	54,8	-7,6
1,9235	32,0	-7,6
1,924	8,5	-7,2
1,9245	-14,4	-6,7
1,925	-35,6	-5,9
1,9255	-53,4	-4,9
1,926	-66,6	-3,6
1,9265	-74,9	-1,8
1,927	-79,8	0,0
1,9275	-82,9	1,3
1,928	-84,2	2,0
1,9285	-81,5	1,9
1,929	-73,8	1,6
1,9295	-62,1	1,2
1,93	-49,4	0,7
1,9305	-38,0	0,3
1,931	-28,0	-0,2
1,9315	-18,8	-0,8
1,932	-10,7	-1,7
1,9325	-4,6	-3,0
1,933	-0,7	-4,6
1,9335	1,9	-6,0
1,934	4,2	-6,8
1,9345	6,7	-6,5
1,935	8,8	-5,4
1,9355	10,1	-3,8
1,936	10,1	-2,3
1,9365	9,0	-1,4
1,937	7,2	-1,2
1,9375	4,4	-1,8
1,938	0,9	-3,0
1,9385	-3,0	-4,7
1,939	-6,4	-6,5
1,9395	-8,7	-8,2
1,94	-9,6	-9,2
1,9405	-9,2	-9,2
1,941	-7,9	-8,5
1,9415	-6,1	-7,3
1,942	-4,1	-5,9
1,9425	-2,1	-4,6
1,943	-0,2	-3,6
1,9435	1,1	-3,1
1,944	1,7	-3,0
1,9445	1,8	-3,3
1,945	2,1	-3,7
1,9455	2,9	-3,9
1,946	4,0	-4,0
1,9465	5,1	-4,0
1,947	5,9	-4,2
1,9475	6,6	-4,5
1,948	7,3	-5,0
1,9485	8,6	-5,7
1,949	10,3	-6,3
1,9495	12,1	-7,0
1,95	14,5	-7,8
1,9505	18,3	-8,4
1,951	24,3	-8,8
1,9515	31,8	-8,7
1,952	39,3	-8,2
1,9525	45,6	-7,5
1,953	50,0	-6,6
1,9535	52,0	-5,5
1,954	51,3	-4,6
1,9545	48,0	-4,1
1,955	42,3	-4,3
1,9555	35,0	-5,1
1,956	26,5	-6,2
1,9565	17,6	-7,2
1,957	8,8	-8,0
1,9575	1,1	-8,7
1,958	-5,2	-9,0
1,9585	-9,8	-8,5
1,959	-12,6	-7,2
1,9595	-13,8	-5,4
1,96	-13,4	-3,9
1,9605	-11,5	-3,3
1,961	-8,5	-3,7
1,9615	-5,1	-4,7
1,962	-1,9	-5,8
1,9625	1,1	-6,3
1,963	4,2	-6,2
1,9635	7,4	-5,7
1,964	10,8	-5,2
1,9645	14,4	-4,9
1,965	18,1	-5,0
1,9655	21,7	-5,4
1,966	24,5	-6,0
1,9665	26,3	-6,6
1,967	26,9	-7,0
1,9675	26,9	-7,0
1,968	26,3	-6,7
1,9685	24,8	-6,1
1,969	22,1	-5,4
1,9695	18,6	-4,6
1,97	15,3	-4,0
1,9705	13,1	-3,8
1,971	12,2	-4,3
1,9715	12,8	-5,4
1,972	15,1	-6,7
1,9725	18,2	-7,4
1,973	21,2	-7,6
1,9735	23,3	-7,2
1,974	24,8	-6,7
1,9745	26,1	-6,2
1,975	27,1	-5,7
1,9755	27,5	-5,0
1,976	27,3	-4,2
1,9765	26,6	-3,5
1,977	25,5	-3,2
1,9775	23,9	-3,3
1,978	22,0	-3,6
1,9785	20,2	-3,9
1,979	19,4	-3,9
1,9795	19,6	-3,8
1,98	20,3	-3,5
1,9805	20,8	-3,1
1,981	21,3	-2,8
1,9815	22,2	-2,6
1,982	23,1	-2,5
1,9825	23,8	-2,7
1,983	23,9	-3,3
1,9835	23,3	-4,5
1,984	22,0	-5,9
1,9845	20,0	-6,9
1,985	17,5	-7,3
1,9855	14,3	-7,1
1,986	10,5	-6,5
1,9865	6,1	-5,6
1,987	1,1	-4,6
1,9875	-4,8	-3,8
1,988	-11,8	-3,1
1,9885	-19,6	-2,9
1,989	-27,0	-3,6
1,9895	-32,5	-5,0
1,99	-35,2	-6,6
1,9905	-35,0	-7,9
1,991	-32,9	-8,5
1,9915	-29,8	-8,4
1,992	-26,0	-7,6
1,9925	-21,6	-6,9
1,993	-16,6	-6,7
1,9935	-11,3	-7,0
1,994	-5,8	-7,6
1,9945	-0,6	-8,2
1,995	4,5	-8,6
1,9955	9,3	-8,8
1,996	13,7	-8,8
1,9965	17,9	-8,3
1,997	21,7	-7,3
1,9975	25,1	-6,0
1,998	28,1	-4,8
1,9985	30,6	-4,0
1,999	32,3	-3,8
1,9995	33,1	-4,2
2	33,4	-4,8
2,0005	33,8	-5,3
2,001	34,2	-5,4
2,0015	34,5	-5,4
2,002	34,4	-5,2
2,0025	34,0	-5,0
2,003	33,4	-4,6
2,0035	32,6	-4,1
2,004	31,6	-3,8
2,0045	30,2	-3,6
2,005	28,7	-3,7
2,0055	27,4	-4,1
2,006	26,3	-4,7
2,0065	24,9	-5,3
2,007	22,8	-5,8
2,0075	20,2	-6,0
2,008	17,8	-6,1
2,0085	15,9	-6,2
2,009	15,0	-6,3
2,0095	14,8	-6,8
2,01	15,2	-7,3
2,0105	15,6	-7,6
2,011	16,0	-7,4
2,0115	16,9	-6,9
2,012	18,7	-6,6
2,0125	21,6	-6,4
2,013	25,3	-6,3
2,0135	29,3	-6,1
2,014	33,5	-5,8
2,0145	37,8	-5,6
2,015	41,7	-5,6
2,0155	44,0	-5,9
2,016	43,9	-6,5
2,0165	41,2	-7,3
2,017	36,3	-8,5
2,0175	30,3	-9,4
2,018	24,3	-9,9
2,0185	18,8	-9,8
2,019	13,7	-9,3
2,0195	9,4	-8,5
2,02	7,6	-7,6
2,0205	10,1	-6,7
2,021	17,5	-6,0
2,0215	28,5	-6,0
2,022	40,3	-6,9
2,0225	50,5	-8,3
2,023	57,0	-9,8
2,0235	59,1	-10,9
2,024	57,4	-11,5
2,0245	52,5	-11,3
2,025	44,2	-10,4
2,0255	32,3	-9,3
2,026	17,4	-8,4
2,0265	1,8	-8,1
2,027	-12,4	-8,3
2,0275	-24,2	-8,7
2,028	-33,3	-8,9
2,0285	-39,8	-9,0
2,029	-44,0	-8,8
2,0295	-45,6	-8,0
2,03	-44,7	-6,7
2,0305	-41,7	-5,3
2,031	-37,4	-4,4
2,0315	-32,6	-4,2
2,032	-26,8	-4,8
2,0325	-19,4	-5,8
2,033	-10,7	-6,9
2,0335	-1,9	-7,8
2,034	5,9	-8,3
2,0345	12,7	-8,5
2,035	19,1	-8,4
2,0355	25,3	-8,1
2,036	31,0	-7,9
2,0365	35,3	-7,9
2,037	38,1	-8,1
2,0375	39,4	-8,3
2,038	39,8	-8,8
2,0385	39,2	-9,4
2,039	37,6	-10,4
2,0395	34,9	-11,8
2,04	31,1	-13,4
2,0405	26,8	-14,7
2,041	22,3	-15,5
2,0415	18,2	-15,4
2,042	14,5	-14,4
2,0425	11,1	-12,8
2,043	8,1	-11,1
2,0435	5,3	-9,8
2,044	2,4	-9,2
2,0445	-0,8	-8,9
2,045	-4,2	-9,0
2,0455	-7,1	-9,4
2,046	-8,8	-9,9
2,0465	-9,2	-10,2
2,047	-8,4	-10,3
2,0475	-7,2	-10,4
2,048	-5,8	-10,7
2,0485	-4,6	-11,0
2,049	-3,6	-11,5
2,0495	-2,5	-12,1
2,05	-0,6	-12,6
2,0505	2,7	-12,8
2,051	6,8	-12,5
2,0515	11,1	-11,6
2,052	14,7	-10,3
2,0525	17,3	-8,9
2,053	18,5	-7,3
2,0535	18,1	-5,6
2,054	16,1	-4,3
2,0545	12,6	-3,4
2,055	7,8	-3,1
2,0555	2,2	-3,1
2,056	-3,7	-3,4
2,0565	-8,9	-3,8
2,057	-13,3	-4,4
2,0575	-16,8	-5,2
2,058	-19,3	-5,9
2,0585	-20,7	-6,9
2,059	-20,8	-7,8
2,0595	-20,0	-8,7
2,06	-18,0	-9,2
2,0605	-13,5	-9,3
2,061	-5,0	-9,0
2,0615	7,5	-8,2
2,062	21,9	-7,0
2,0625	35,5	-5,3
2,063	46,4	-3,4
2,0635	53,8	-1,5
2,064	57,2	0,1
2,0645	56,3	1,0
2,065	50,4	0,9
2,0655	40,1	0,2
2,066	26,3	-1,1
2,0665	10,5	-2,7
2,067	-6,0	-4,8
2,0675	-21,9	-6,8
2,068	-36,3	-8,2
2,0685	-48,1	-8,4
2,069	-56,4	-7,8
2,0695	-60,5	-6,8
2,07	-59,9	-5,7
2,0705	-54,7	-4,8
2,071	-45,8	-4,4
2,0715	-34,6	-4,6
2,072	-22,2	-5,2
2,0725	-9,3	-6,1
2,073	3,5	-7,0
2,0735	14,9	-7,6
2,074	23,4	-8,0
2,0745	28,9	-8,1
2,075	31,6	-7,9
2,0755	32,2	-7,6
2,076	31,1	-7,6
2,0765	28,3	-8,0
2,077	23,6	-8,7
2,0775	17,4	-9,2
2,078	10,2	-9,3
2,0785	2,6	-8,9
2,079	-4,7	-8,1
2,0795	-10,7	-7,2
2,08	-14,9	-6,6
2,0805	-17,0	-6,6
2,081	-16,4	-7,1
2,0815	-13,0	-8,0
2,082	-7,8	-9,1
2,0825	-1,9	-10,1
2,083	4,1	-10,9
2,0835	10,3	-11,3
2,084	16,2	-11,2
2,0845	20,4	-10,4
2,085	21,9	-9,3
2,0855	20,5	-8,1
2,086	16,8	-7,4
2,0865	11,7	-7,3
2,087	6,1	-7,6
2,0875	0,9	-7,8
2,088	-2,6	-7,7
2,0885	-3,8	-7,3
2,089	-2,7	-6,5
2,0895	-0,3	-5,6
2,09	2,3	-4,8
2,0905	4,5	-4,8
2,091	5,9	-5,5
2,0915	6,1	-6,9
2,092	4,8	-8,8
2,0925	2,4	-10,5
2,093	-0,4	-11,9
2,0935	-3,6	-13,0
2,094	-6,9	-13,8
2,0945	-9,7	-14,3
2,095	-10,9	-14,3
2,0955	-10,4	-13,6
2,096	-8,8	-12,4
2,0965	-7,1	-10,8
2,097	-6,2	-8,9
2,0975	-6,7	-7,4
2,098	-8,3	-6,5
2,0985	-9,8	-6,3
2,099	-9,8	-6,8
2,0995	-8,1	-7,7
2,1	-5,1	-8,8
2,1005	-1,7	-10,0
2,101	1,8	-10,6
2,1015	5,7	-10,4
2,102	10,2	-9,6
2,1025	15,1	-8,6
2,103	19,3	-7,8
2,1035	21,5	-7,4
2,104	21,5	-7,6
2,1045	19,8	-8,1
2,105	17,5	-8,8
2,1055	15,4	-9,5
2,106	13,3	-9,8
2,1065	11,5	-9,5
2,107	11,4	-8,6
2,1075	14,3	-7,3
2,108	20,8	-5,9
2,1085	29,4	-5,2
2,109	38,6	-5,0
2,1095	47,3	-5,3
2,11	54,7	-5,9
2,1105	59,8	-6,5
2,111	61,7	-7,1
2,1115	58,9	-7,9
2,112	51,0	-8,8
2,1125	38,6	-9,7
2,113	23,9	-10,4
2,1135	9,5	-10,8
2,114	-2,8	-10,8
2,1145	-12,6	-10,4
2,115	-20,2	-9,7
2,1155	-25,8	-8,8
2,116	-29,3	-7,7
2,1165	-30,7	-6,5
2,117	-29,8	-5,5
2,1175	-26,9	-4,7
2,118	-23,2	-3,8
2,1185	-19,6	-3,1
2,119	-15,9	-2,7
2,1195	-11,4	-2,9
2,12	-5,8	-3,4
2,1205	0,8	-4,2
2,121	7,8	-5,0
2,1215	14,3	-5,8
2,122	19,2	-6,7
2,1225	21,8	-7,7
2,123	22,4	-8,8
2,1235	22,1	-9,8
2,124	21,7	-10,7
2,1245	21,3	-11,3
2,125	20,7	-11,4
2,1255	19,6	-10,8
2,126	17,8	-9,7
2,1265	15,5	-8,0
2,127	12,9	-6,3
2,1275	10,0	-4,8
2,128	6,9	-3,6
2,1285	3,7	-2,8
2,129	0,4	-2,4
2,1295	-2,7	-2,3
2,13	-5,5	-2,3
2,1305	-7,6	-2,8
2,131	-8,4	-3,4
2,1315	-7,8	-4,3
2,132	-5,9	-5,1
2,1325	-3,0	-5,8
2,133	0,6	-6,6
2,1335	4,3	-7,5
2,134	7,3	-8,2
2,1345	9,5	-8,5
2,135	11,4	-8,2
2,1355	13,8	-7,6
2,136	16,7	-6,8
2,1365	19,2	-5,9
2,137	21,1	-5,1
2,1375	22,3	-4,7
2,138	23,0	-4,7
2,1385	23,0	-4,9
2,139	22,1	-5,0
2,1395	20,8	-4,8
2,14	19,4	-4,6
2,1405	18,2	-4,4
2,141	17,2	-4,2
2,1415	16,7	-3,6
2,142	16,6	-2,9
2,1425	16,9	-2,3
2,143	17,3	-2,1
2,1435	17,1	-2,2
2,144	15,9	-2,6
2,1445	13,8	-3,4
2,145	11,0	-4,3
2,1455	7,9	-5,4
2,146	4,6	-6,2
2,1465	1,6	-6,9
2,147	-0,6	-7,3
2,1475	-1,6	-7,5
2,148	-1,3	-7,6
2,1485	-0,2	-7,6
2,149	1,3	-7,6
2,1495	2,3	-7,9
2,15	2,5	-8,6
2,1505	1,3	-9,7
2,151	-1,1	-10,7
2,1515	-4,3	-11,3
2,152	-7,3	-11,3
2,1525	-9,2	-10,6
2,153	-9,4	-9,7
2,1535	-8,0	-8,9
2,154	-5,5	-8,8
2,1545	-2,5	-9,3
2,155	0,9	-10,1
2,1555	4,3	-11,1
2,156	7,6	-11,8
2,1565	10,4	-12,0
2,157	12,3	-11,6
2,1575	13,1	-11,0
2,158	12,2	-10,5
2,1585	9,9	-10,3
2,159	6,8	-10,2
2,1595	4,4	-10,2
2,16	3,5	-10,2
2,1605	3,9	-9,9
2,161	5,0	-9,5
2,1615	5,6	-9,1
2,162	5,4	-8,9
2,1625	4,6	-8,9
2,163	3,7	-9,3
2,1635	2,8	-10,0
2,164	1,8	-10,9
2,1645	0,3	-11,6
2,165	-1,8	-11,9
2,1655	-4,0	-12,0
2,166	-5,9	-12,1
2,1665	-7,2	-12,2
2,167	-7,8	-12,2
2,1675	-7,9	-11,8
2,168	-7,8	-10,9
2,1685	-7,5	-9,8
2,169	-7,4	-8,7
2,1695	-7,4	-7,6
2,17	-7,2	-6,6
2,1705	-6,4	-5,7
2,171	-5,4	-5,3
2,1715	-3,9	-5,2
2,172	-0,4	-5,4
2,1725	6,2	-5,7
2,173	15,1	-5,9
2,1735	24,2	-6,2
2,174	31,5	-6,4
2,1745	36,7	-6,8
2,175	39,3	-7,1
2,1755	39,1	-7,3
2,176	35,4	-7,5
2,1765	27,8	-7,7
2,177	16,3	-7,8
2,1775	1,7	-7,8
2,178	-15,1	-7,9
2,1785	-32,9	-8,0
2,179	-50,4	-8,3
2,1795	-66,3	-8,5
2,18	-78,6	-8,7
2,1805	-86,1	-8,6
2,181	-87,9	-8,3
2,1815	-84,1	-7,9
2,182	-75,8	-7,8
2,1825	-64,9	-7,8
2,183	-53,8	-8,1
2,1835	-43,6	-8,5
2,184	-34,9	-9,1
2,1845	-27,2	-9,7
2,185	-20,1	-10,1
2,1855	-13,1	-10,3
2,186	-5,0	-10,3
2,1865	4,5	-10,3
2,187	14,5	-10,6
2,1875	22,8	-11,1
2,188	27,0	-11,7
2,1885	26,9	-12,3
2,189	23,3	-12,9
2,1895	17,7	-13,0
2,19	11,1	-12,5
2,1905	4,0	-11,2
2,191	-3,3	-9,1
2,1915	-9,9	-6,6
2,192	-15,1	-4,1
2,1925	-18,2	-2,3
2,193	-19,2	-1,3
2,1935	-18,5	-1,2
2,194	-16,4	-1,8
2,1945	-13,3	-2,7
2,195	-9,7	-3,9
2,1955	-6,6	-5,3
2,196	-5,0	-6,8
2,1965	-4,7	-8,0
2,197	-5,3	-8,9
2,1975	-5,6	-9,5
2,198	-4,8	-9,7
2,1985	-2,3	-9,4
2,199	2,4	-8,8
2,1995	8,8	-8,0
2,2	15,8	-7,2
2,2005	21,7	-6,6
2,201	25,7	-6,3
2,2015	28,1	-6,3
2,202	29,2	-6,6
2,2025	28,8	-7,1
2,203	26,5	-7,5
2,2035	22,1	-7,8
2,204	16,2	-7,9
2,2045	10,1	-8,0
2,205	4,8	-8,3
2,2055	0,9	-8,7
2,206	-1,3	-9,1
2,2065	-1,8	-8,9
2,207	-1,2	-8,3
2,2075	0,2	-7,4
2,208	1,4	-6,7
2,2085	1,9	-6,3
2,209	1,9	-6,3
2,2095	2,1	-6,6
2,21	3,1	-7,2
2,2105	5,1	-7,9
2,211	7,8	-8,7
2,2115	10,6	-9,2
2,212	12,3	-9,3
2,2125	12,6	-8,9
2,213	12,0	-8,2
2,2135	11,9	-7,2
2,214	12,7	-6,0
2,2145	13,2	-4,9
2,215	12,5	-4,0
2,2155	10,9	-3,7
2,216	9,3	-3,8
2,2165	9,2	-4,2
2,217	11,1	-4,7
2,2175	14,2	-4,8
2,218	17,2	-4,3
2,2185	20,2	-3,7
2,219	23,8	-3,3
2,2195	29,0	-3,6
2,22	35,3	-4,4
2,2205	42,3	-5,5
2,221	48,9	-6,8
2,2215	53,6	-8,2
2,222	54,7	-9,7
2,2225	51,2	-11,2
2,223	42,8	-12,3
2,2235	30,2	-12,8
2,224	14,6	-12,9
2,2245	-2,1	-12,8
2,225	-17,9	-12,6
2,2255	-31,5	-12,3
2,226	-42,1	-11,7
2,2265	-49,4	-11,1
2,227	-53,9	-10,8
2,2275	-56,0	-10,9
2,228	-56,4	-11,1
2,2285	-55,1	-11,0
2,229	-52,6	-10,6
2,2295	-49,4	-10,1
2,23	-46,1	-9,7
2,2305	-42,0	-9,4
2,231	-36,4	-9,4
2,2315	-29,2	-9,6
2,232	-21,3	-10,0
2,2325	-13,7	-10,6
2,233	-6,9	-11,3
2,2335	-1,3	-12,1
2,234	2,6	-12,8
2,2345	4,6	-13,1
2,235	5,3	-12,9
2,2355	5,7	-12,3
2,236	6,5	-11,7
2,2365	7,8	-11,1
2,237	9,2	-10,6
2,2375	9,9	-10,1
2,238	9,2	-9,8
2,2385	6,9	-9,8
2,239	3,8	-10,2
2,2395	0,6	-10,7
2,24	-2,3	-11,3
2,2405	-5,4	-11,6
2,241	-9,1	-11,6
2,2415	-13,1	-10,9
2,242	-16,8	-9,8
2,2425	-19,4	-8,7
2,243	-20,7	-8,1
2,2435	-20,8	-8,0
2,244	-20,0	-8,5
2,2445	-18,7	-9,3
2,245	-17,2	-10,1
2,2455	-15,3	-10,7
2,246	-12,1	-10,6
2,2465	-7,0	-10,1
2,247	-0,3	-9,1
2,2475	6,5	-8,1
2,248	12,3	-7,3
2,2485	16,6	-6,9
2,249	19,1	-7,0
2,2495	19,8	-7,4
2,25	18,8	-8,0
2,2505	16,4	-8,6
2,251	13,3	-9,0
2,2515	9,7	-9,2
2,252	6,2	-9,0
2,2525	2,9	-8,8
2,253	-0,0	-8,8
2,2535	-2,6	-9,1
2,254	-4,9	-9,6
2,2545	-7,0	-10,3
2,255	-9,7	-11,0
2,2555	-13,5	-11,3
2,256	-18,3	-11,2
2,2565	-23,8	-10,7
2,257	-29,7	-10,1
2,2575	-35,8	-9,8
2,258	-41,9	-9,8
2,2585	-47,4	-10,0
2,259	-51,7	-10,3
2,2595	-53,8	-10,8
2,26	-53,5	-11,5
2,2605	-50,8	-12,2
2,261	-46,2	-12,6
2,2615	-40,6	-12,8
2,262	-34,3	-12,3
2,2625	-27,4	-11,4
2,263	-20,0	-10,1
2,2635	-13,1	-8,7
2,264	-7,4	-7,4
2,2645	-3,6	-6,2
2,265	-1,6	-5,3
2,2655	-1,5	-4,9
2,266	-3,0	-5,1
2,2665	-5,4	-5,8
2,267	-8,2	-6,6
2,2675	-10,4	-6,8
2,268	-11,4	-6,4
2,2685	-10,9	-5,7
2,269	-8,9	-5,1
2,2695	-6,2	-4,6
2,27	-2,8	-4,3
2,2705	1,1	-4,4
2,271	5,1	-5,2
2,2715	8,3	-6,6
2,272	10,0	-8,5
2,2725	10,1	-10,5
2,273	9,2	-12,2
2,2735	8,0	-13,2
2,274	7,0	-13,4
2,2745	6,5	-12,7
2,275	6,4	-11,2
2,2755	6,7	-9,0
2,276	7,0	-6,9
2,2765	7,0	-5,3
2,277	6,9	-4,7
2,2775	6,6	-5,0
2,278	6,0	-6,1
2,2785	4,8	-7,5
2,279	2,8	-8,8
2,2795	0,6	-9,8
2,28	-1,6	-10,5
2,2805	-3,5	-10,8
2,281	-5,6	-10,9
2,2815	-7,9	-10,9
2,282	-10,2	-11,2
2,2825	-10,4	-11,7
2,283	-6,6	-12,5
2,2835	1,7	-13,3
2,284	12,3	-13,8
2,2845	22,1	-13,8
2,285	29,4	-13,3
2,2855	33,7	-12,3
2,286	34,8	-11,0
2,2865	32,8	-9,4
2,287	27,8	-7,9
2,2875	20,2	-6,8
2,288	10,6	-6,5
2,2885	-0,6	-6,8
2,289	-12,7	-7,6
2,2895	-24,7	-8,3
2,29	-34,8	-8,6
2,2905	-42,1	-8,3
2,291	-45,7	-7,9
2,2915	-45,5	-7,5
2,292	-41,4	-7,3
2,2925	-33,6	-7,3
2,293	-23,1	-7,4
2,2935	-11,8	-7,5
2,294	-1,5	-7,6
2,2945	6,5	-7,9
2,295	12,0	-8,4
2,2955	15,2	-9,0
2,296	16,3	-9,4
2,2965	16,0	-9,8
2,297	14,5	-10,2
2,2975	12,4	-10,8
2,298	10,0	-11,4
2,2985	7,5	-11,7
2,299	4,9	-11,1
2,2995	2,9	-9,9
2,3	1,9	-8,6
2,3005	2,1	-7,8
2,301	2,6	-7,8
2,3015	3,1	-8,2
2,302	3,3	-8,7
2,3025	3,3	-8,8
2,303	3,1	-8,5
2,3035	2,6	-7,9
2,304	2,7	-7,3
2,3045	4,2	-7,0
2,305	7,1	-7,1
2,3055	10,4	-7,3
2,306	12,9	-7,6
2,3065	14,1	-7,9
2,307	14,7	-8,0
2,3075	15,3	-7,8
2,308	16,8	-7,5
2,3085	19,3	-7,2
2,309	22,3	-7,6
2,3095	24,7	-8,7
2,31	24,9	-10,4
2,3105	22,7	-12,0
2,311	18,8	-12,9
2,3115	14,1	-13,2
2,312	9,6	-13,0
2,3125	5,5	-12,4
2,313	1,8	-11,5
2,3135	-1,9	-10,4
2,314	-5,3	-9,4
2,3145	-7,2	-8,8
2,315	-7,4	-8,5
2,3155	-6,6	-8,4
2,316	-5,6	-8,5
2,3165	-4,0	-8,7
2,317	-1,2	-9,0
2,3175	3,3	-9,4
2,318	8,5	-9,5
2,3185	13,7	-9,2
2,319	19,1	-8,4
2,3195	24,7	-7,4
2,32	30,4	-6,6
2,3205	35,9	-6,2
2,321	40,8	-6,4
2,3215	44,4	-7,1
2,322	45,8	-8,1
2,3225	44,0	-9,1
2,323	38,3	-9,7
2,3235	28,8	-9,5
2,324	16,2	-8,8
2,3245	2,6	-7,9
2,325	-9,8	-7,0
2,3255	-19,8	-6,2
2,326	-27,4	-5,7
2,3265	-33,3	-5,8
2,327	-38,2	-6,6
2,3275	-41,8	-8,1
2,328	-43,3	-9,5
2,3285	-42,3	-10,3
2,329	-39,4	-10,3
2,3295	-36,1	-9,5
2,33	-33,5	-8,5
2,3305	-31,1	-7,4
2,331	-28,0	-6,8
2,3315	-23,8	-7,0
2,332	-19,2	-7,9
2,3325	-14,9	-9,4
2,333	-11,1	-11,1
2,3335	-7,8	-12,5
2,334	-5,6	-13,5
2,3345	-4,9	-13,8
2,335	-5,7	-13,4
2,3355	-7,6	-12,3
2,336	-9,7	-10,8
2,3365	-11,3	-9,2
2,337	-12,7	-7,8
2,3375	-13,8	-6,8
2,338	-14,4	-6,1
2,3385	-13,8	-5,6
2,339	-11,1	-5,3
2,3395	-6,6	-5,1
2,34	-1,7	-5,0
2,3405	2,3	-5,0
2,341	4,6	-4,9
2,3415	5,6	-4,8
2,342	5,7	-4,5
2,3425	5,3	-4,3
2,343	4,4	-4,3
2,3435	2,6	-4,5
2,344	0,0	-4,8
2,3445	-3,0	-5,0
2,345	-5,8	-4,9
2,3455	-8,1	-4,5
2,346	-10,2	-3,9
2,3465	-12,0	-3,3
2,347	-13,6	-2,8
2,3475	-14,5	-2,4
2,348	-14,7	-2,2
2,3485	-14,2	-2,2
2,349	-13,2	-2,4
2,3495	-12,4	-2,9
2,35	-12,0	-3,7
2,3505	-11,5	-4,7
2,351	-10,3	-5,3
2,3515	-8,0	-5,6
2,352	-4,7	-5,6
2,3525	-1,2	-5,7
2,353	2,1	-6,0
2,3535	5,3	-6,5
2,354	8,6	-7,1
2,3545	12,7	-7,5
2,355	17,5	-7,7
2,3555	22,5	-7,8
2,356	26,6	-7,9
2,3565	29,2	-8,1
2,357	30,0	-8,3
2,3575	28,9	-8,5
2,358	26,2	-8,3
2,3585	21,8	-7,7
2,359	16,5	-7,1
2,3595	10,6	-6,7
2,36	5,0	-6,6
2,3605	-0,1	-6,9
2,361	-4,3	-7,4
2,3615	-7,0	-7,8
2,362	-7,3	-7,6
2,3625	-4,8	-6,7
2,363	-0,5	-5,3
2,3635	4,5	-4,1
2,364	8,5	-3,5
2,3645	10,8	-3,7
2,365	12,0	-4,3
2,3655	13,4	-5,3
2,366	16,1	-6,2
2,3665	19,8	-6,9
2,367	23,6	-7,3
2,3675	26,3	-7,3
2,368	27,4	-6,8
2,3685	26,6	-5,8
2,369	24,2	-4,7
2,3695	20,3	-3,9
2,37	14,6	-3,7
2,3705	7,5	-4,0
2,371	0,1	-4,9
2,3715	-6,4	-6,0
2,372	-11,1	-6,9
2,3725	-13,6	-7,3
2,373	-14,3	-7,4
2,3735	-14,1	-7,3
2,374	-13,4	-7,2
2,3745	-12,8	-7,0
2,375	-12,4	-6,6
2,3755	-12,2	-6,3
2,376	-11,9	-6,1
2,3765	-11,3	-6,3
2,377	-10,3	-6,8
2,3775	-9,0	-7,3
2,378	-8,0	-7,9
2,3785	-7,6	-8,2
2,379	-8,0	-7,9
2,3795	-9,2	-6,9
2,38	-11,2	-5,2
2,3805	-13,5	-3,4
2,381	-15,8	-2,2
2,3815	-17,9	-2,1
2,382	-19,8	-3,1
2,3825	-21,1	-4,8
2,383	-21,5	-6,9
2,3835	-20,4	-8,7
2,384	-17,6	-9,8
2,3845	-13,2	-10,0
2,385	-8,2	-9,4
2,3855	-3,8	-8,3
2,386	-1,1	-7,0
2,3865	-0,2	-5,8
2,387	-0,9	-4,9
2,3875	-2,9	-4,5
2,388	-5,7	-4,2
2,3885	-8,6	-3,9
2,389	-11,0	-3,6
2,3895	-12,5	-3,4
2,39	-13,2	-3,5
2,3905	-13,6	-3,8
2,391	-14,2	-4,3
2,3915	-15,1	-4,6
2,392	-16,3	-4,8
2,3925	-17,5	-4,9
2,393	-18,3	-5,0
2,3935	-18,4	-5,0
2,394	-17,5	-5,2
2,3945	-15,3	-5,4
2,395	-12,1	-5,6
2,3955	-8,3	-5,8
2,396	-4,8	-5,8
2,3965	-2,5	-5,8
2,397	-1,7	-5,8
2,3975	-1,8	-5,9
2,398	-2,2	-6,0
2,3985	-2,4	-6,2
2,399	-2,5	-6,7
2,3995	-2,6	-7,3
2,4	-2,7	-8,1
2,4005	-2,7	-8,8
2,401	-2,7	-9,3
2,4015	-3,0	-9,7
2,402	-3,6	-9,7
2,4025	-4,5	-9,5
2,403	-5,6	-9,2
2,4035	-6,5	-9,1
2,404	-7,3	-9,3
2,4045	-7,8	-9,8
2,405	-8,1	-10,5
2,4055	-8,5	-11,4
2,406	-8,7	-12,2
2,4065	-7,8	-12,6
2,407	-5,0	-12,4
2,4075	-0,3	-11,6
2,408	5,5	-10,0
2,4085	11,3	-8,0
2,409	16,0	-6,1
2,4095	19,2	-5,0
2,41	20,1	-4,8
2,4105	19,3	-5,3
2,411	17,5	-6,0
2,4115	15,5	-6,7
2,412	13,7	-7,4
2,4125	11,8	-7,9
2,413	9,6	-8,1
2,4135	6,4	-8,1
2,414	2,5	-8,1
2,4145	-1,6	-8,0
2,415	-5,6	-8,1
2,4155	-9,6	-8,4
2,416	-13,4	-8,9
2,4165	-14,9	-9,6
2,417	-12,0	-10,2
2,4175	-4,4	-10,3
2,418	5,3	-9,8
2,4185	14,0	-8,8
2,419	20,1	-7,8
2,4195	22,9	-7,3
2,42	22,3	-7,6
2,4205	18,6	-8,8
2,421	12,5	-10,3
2,4215	4,9	-11,8
2,422	-3,7	-13,0
2,4225	-12,4	-13,8
2,423	-20,6	-14,0
2,4235	-27,6	-13,8
2,424	-33,3	-13,1
2,4245	-37,9	-12,3
2,425	-40,6	-11,4
2,4255	-40,3	-10,6
2,426	-36,3	-10,0
2,4265	-29,6	-9,9
2,427	-21,6	-10,2
2,4275	-14,5	-10,7
2,428	-9,0	-11,0
2,4285	-4,7	-11,2
2,429	-0,1	-11,3
2,4295	5,2	-11,2
2,43	10,1	-11,0
2,4305	12,8	-10,6
2,431	12,9	-10,4
2,4315	11,3	-10,4
2,432	9,1	-10,6
2,4325	6,6	-10,8
2,433	4,0	-10,8
2,4335	1,7	-10,5
2,434	-0,3	-9,6
2,4345	-2,1	-8,2
2,435	-4,1	-6,5
2,4355	-6,0	-5,0
2,436	-7,1	-4,1
2,4365	-6,8	-3,8
2,437	-5,1	-4,3
2,4375	-2,6	-5,3
2,438	0,7	-6,4
2,4385	4,8	-7,2
2,439	10,0	-7,7
2,4395	15,9	-7,9
2,44	22,0	-8,0
2,4405	27,6	-8,3
2,441	32,1	-8,7
2,4415	34,7	-9,1
2,442	35,2	-9,4
2,4425	33,6	-9,8
2,443	30,6	-10,2
2,4435	27,2	-10,6
2,444	23,7	-10,7
2,4445	20,3	-10,5
2,445	16,7	-10,1
2,4455	12,5	-9,6
2,446	7,5	-8,9
2,4465	1,4	-8,4
2,447	-5,9	-8,0
2,4475	-14,0	-7,9
2,448	-21,4	-8,0
2,4485	-26,2	-8,3
2,449	-26,9	-8,7
2,4495	-23,9	-9,3
2,45	-18,7	-10,1
2,4505	-13,1	-10,8
2,451	-7,4	-10,5
2,4515	-0,8	-9,2
2,452	6,8	-7,7
2,4525	15,0	-6,8
2,453	22,5	-7,0
2,4535	28,8	-7,8
2,454	33,4	-8,5
2,4545	35,3	-8,8
2,455	33,4	-8,9
2,4555	26,5	-8,9
2,456	13,9	-9,3
2,4565	-3,5	-9,8
2,457	-23,5	-10,3
2,4575	-43,5	-10,6
2,458	-61,1	-10,6
2,4585	-74,9	-10,1
2,459	-83,6	-9,6
2,4595	-86,6	-9,6
2,46	-84,0	-10,1
2,4605	-76,8	-10,9
2,461	-66,6	-11,5
2,4615	-55,0	-11,8
2,462	-44,0	-11,9
2,4625	-34,7	-11,7
2,463	-27,0	-11,3
2,4635	-20,4	-10,8
2,464	-14,3	-10,6
2,4645	-8,3	-10,8
2,465	-2,4	-11,4
2,4655	3,4	-12,3
2,466	8,6	-13,1
2,4665	12,2	-13,7
2,467	13,8	-13,8
2,4675	13,0	-13,7
2,468	10,5	-13,1
2,4685	7,2	-12,4
2,469	4,2	-11,9
2,4695	2,0	-11,8
2,47	0,4	-11,9
2,4705	-0,9	-12,2
2,471	-2,2	-12,5
2,4715	-3,1	-12,8
2,472	-3,6	-12,8
2,4725	-3,3	-12,6
2,473	-2,5	-12,2
2,4735	-1,8	-11,6
2,474	-1,8	-11,0
2,4745	-2,3	-10,4
2,475	-3,1	-9,8
2,4755	-3,7	-9,3
2,476	-3,6	-9,1
2,4765	-2,6	-9,2
2,477	-1,2	-9,5
2,4775	0,5	-10,0
2,478	2,6	-10,4
2,4785	5,3	-10,7
2,479	8,3	-10,7
2,4795	10,9	-10,3
2,48	12,7	-9,5
2,4805	13,7	-8,8
2,481	14,2	-8,2
2,4815	14,4	-7,9
2,482	14,1	-8,1
2,4825	13,3	-8,6
2,483	11,7	-9,3
2,4835	9,6	-9,6
2,484	7,1	-9,2
2,4845	4,4	-8,3
2,485	1,7	-6,8
2,4855	-1,1	-5,3
2,486	-4,3	-4,4
2,4865	-7,8	-4,5
2,487	-11,0	-5,3
2,4875	-13,3	-6,4
2,488	-13,7	-7,4
2,4885	-11,8	-8,4
2,489	-8,0	-9,3
2,4895	-3,3	-10,1
2,49	0,9	-10,7
2,4905	3,6	-11,0
2,491	4,7	-11,3
2,4915	4,3	-11,3
2,492	3,2	-10,8
2,4925	1,6	-9,8
2,493	-0,1	-8,8
2,4935	-1,9	-8,3
2,494	-4,2	-8,1
2,4945	-7,0	-7,9
2,495	-10,4	-7,9
2,4955	-14,2	-7,9
2,496	-17,5	-8,1
2,4965	-19,4	-8,1
2,497	-19,7	-7,7
2,4975	-18,8	-7,0
2,498	-17,3	-6,5
2,4985	-15,6	-6,5
2,499	-13,5	-7,2
2,4995	-10,9	-8,1
2,5	-7,5	-9,1
2,5005	-3,5	-9,8
2,501	0,1	-10,1
2,5015	2,6	-10,1
2,502	3,9	-9,9
2,5025	4,2	-9,5
2,503	4,4	-9,2
2,5035	6,5	-8,8
2,504	11,7	-8,4
2,5045	19,3	-8,1
2,505	27,3	-8,0
2,5055	34,6	-8,1
2,506	40,2	-7,9
2,5065	43,5	-7,4
2,507	43,4	-6,6
2,5075	39,1	-5,5
2,508	30,7	-4,4
2,5085	19,0	-3,4
2,509	5,5	-2,6
2,5095	-8,8	-2,3
2,51	-23,0	-2,5
2,5105	-35,8	-3,2
2,511	-45,8	-4,2
2,5115	-52,2	-5,4
2,512	-55,3	-6,6
2,5125	-55,2	-7,3
2,513	-51,6	-7,5
2,5135	-44,6	-7,2
2,514	-35,2	-6,7
2,5145	-25,0	-6,3
2,515	-14,9	-6,3
2,5155	-4,3	-6,7
2,516	7,7	-7,5
2,5165	20,7	-8,5
2,517	32,9	-9,6
2,5175	41,6	-10,5
2,518	45,3	-10,9
2,5185	44,0	-10,6
2,519	39,3	-9,9
2,5195	32,3	-9,2
2,52	24,4	-8,4
2,5205	16,7	-7,8
2,521	10,5	-7,4
2,5215	6,3	-7,3
2,522	4,1	-7,2
2,5225	3,0	-6,9
2,523	2,5	-6,2
2,5235	1,9	-5,3
2,524	1,0	-4,4
2,5245	-0,2	-3,9
2,525	-2,0	-3,7
2,5255	-4,4	-4,0
2,526	-7,8	-4,5
2,5265	-12,1	-5,1
2,527	-17,3	-5,4
2,5275	-22,5	-5,5
2,528	-27,0	-5,2
2,5285	-30,8	-4,6
2,529	-34,1	-3,7
2,5295	-37,3	-2,4
2,53	-40,2	-1,3
2,5305	-42,6	-0,6
2,531	-43,9	-0,7
2,5315	-43,4	-1,3
2,532	-40,9	-2,4
2,5325	-37,0	-3,5
2,533	-32,5	-4,5
2,5335	-28,4	-5,3
2,534	-25,5	-6,1
2,5345	-24,0	-6,8
2,535	-23,7	-7,3
2,5355	-24,0	-7,5
2,536	-23,8	-7,3
2,5365	-22,5	-6,8
2,537	-20,4	-6,4
2,5375	-17,8	-6,5
2,538	-15,2	-6,9
2,5385	-12,7	-7,4
2,539	-10,7	-7,9
2,5395	-9,3	-8,2
2,54	-8,4	-8,3
2,5405	-7,6	-8,2
2,541	-6,6	-8,1
2,5415	-5,3	-8,0
2,542	-3,9	-8,2
2,5425	-1,9	-8,6
2,543	0,8	-9,2
2,5435	4,2	-9,7
2,544	7,8	-10,1
2,5445	11,3	-10,3
2,545	14,0	-10,5
2,5455	15,4	-10,5
2,546	15,0	-10,2
2,5465	13,1	-9,7
2,547	10,3	-9,2
2,5475	7,3	-8,9
2,548	4,9	-8,8
2,5485	3,6	-8,6
2,549	3,4	-8,2
2,5495	4,2	-7,7
2,55	5,2	-7,0
2,5505	6,1	-5,8
2,551	6,7	-4,4
2,5515	6,8	-2,9
2,552	6,7	-1,8
2,5525	6,0	-1,2
2,553	4,9	-1,1
2,5535	3,3	-1,3
2,554	1,1	-1,6
2,5545	-1,9	-1,7
2,555	-5,8	-1,8
2,5555	-9,5	-1,8
2,556	-10,6	-1,4
2,5565	-8,0	-0,8
2,557	-2,1	-0,1
2,5575	5,3	0,2
2,558	13,0	-0,1
2,5585	19,9	-1,1
2,559	24,8	-2,6
2,5595	27,0	-4,4
2,56	26,3	-5,9
2,5605	21,8	-7,0
2,561	13,2	-7,5
2,5615	0,9	-7,6
2,562	-13,5	-7,3
2,5625	-27,9	-6,8
2,563	-40,3	-5,9
2,5635	-49,9	-5,0
2,564	-56,6	-4,0
2,5645	-60,7	-3,0
2,565	-62,3	-2,2
2,5655	-60,9	-1,5
2,566	-56,8	-1,1
2,5665	-51,4	-0,9
2,567	-46,8	-0,8
2,5675	-43,7	-0,8
2,568	-40,3	-0,9
2,5685	-35,0	-1,1
2,569	-27,5	-1,4
2,5695	-18,7	-1,9
2,57	-9,7	-2,7
2,5705	-1,3	-3,6
2,571	5,8	-4,4
2,5715	10,8	-5,1
2,572	13,2	-5,8
2,5725	13,3	-6,5
2,573	11,9	-7,2
2,5735	10,0	-7,7
2,574	8,3	-7,8
2,5745	7,2	-7,5
2,575	7,2	-6,9
2,5755	8,3	-6,3
2,576	10,1	-5,8
2,5765	12,1	-5,4
2,577	13,5	-5,3
2,5775	14,4	-5,3
2,578	14,8	-5,5
2,5785	15,3	-5,6
2,579	15,9	-5,4
2,5795	16,6	-4,8
2,58	17,3	-3,9
2,5805	18,1	-3,0
2,581	18,8	-2,2
2,5815	19,7	-1,4
2,582	20,1	-0,8
2,5825	19,8	-0,4
2,583	19,2	-0,7
2,5835	19,2	-1,5
2,584	20,2	-2,6
2,5845	22,0	-3,3
2,585	23,6	-3,2
2,5855	24,4	-2,6
2,586	24,0	-1,6
2,5865	22,3	-0,4
2,587	19,7	0,7
2,5875	16,5	1,5
2,588	12,7	1,6
2,5885	8,0	1,0
2,589	2,4	-0,0
2,5895	-3,7	-1,3
2,59	-9,9	-2,1
2,5905	-15,3	-2,2
2,591	-18,8	-1,4
2,5915	-20,0	0,0
2,592	-19,6	1,5
2,5925	-18,0	2,8
2,593	-16,0	3,5
2,5935	-13,8	3,5
2,594	-11,9	3,2
2,5945	-10,6	2,7
2,595	-9,8	2,3
2,5955	-9,1	2,0
2,596	-8,3	1,9
2,5965	-7,6	1,7
2,597	-7,3	1,0
2,5975	-7,5	0,1
2,598	-7,8	-0,6
2,5985	-8,0	-1,0
2,599	-8,4	-1,3
2,5995	-9,4	-1,7
2,6	-11,5	-2,3
2,6005	-14,5	-3,0
2,601	-17,8	-3,4
2,6015	-20,6	-3,6
2,602	-22,3	-3,7
2,6025	-23,1	-3,9
2,603	-23,9	-4,1
2,6035	-25,3	-4,0
2,604	-26,7	-3,9
2,6045	-26,6	-4,0
2,605	-23,8	-4,2
2,6055	-18,8	-4,5
2,606	-12,7	-4,6
2,6065	-7,0	-4,5
2,607	-2,9	-4,3
2,6075	-0,5	-4,1
2,608	0,4	-3,8
2,6085	0,5	-3,1
2,609	0,3	-2,2
2,6095	-0,1	-1,3
2,61	-0,5	-0,6
2,6105	-1,2	-0,3
2,611	-2,3	-0,3
2,6115	-4,2	-0,4
2,612	-7,1	-0,3
2,6125	-10,4	0,2
2,613	-13,4	0,8
2,6135	-15,3	1,3
2,614	-15,3	1,6
2,6145	-13,9	1,4
2,615	-11,4	0,7
2,6155	-8,2	-0,1
2,616	-4,1	-0,6
2,6165	1,2	-1,0
2,617	7,3	-1,5
2,6175	13,1	-1,8
2,618	17,5	-1,9
2,6185	20,2	-1,9
2,619	21,8	-2,0
2,6195	23,1	-2,1
2,62	24,5	-2,2
2,6205	26,6	-2,3
2,621	29,6	-2,5
2,6215	33,2	-2,8
2,622	36,6	-3,4
2,6225	39,2	-4,4
2,623	40,2	-5,5
2,6235	39,2	-6,5
2,624	36,8	-7,5
2,6245	34,3	-8,3
2,625	32,7	-8,8
2,6255	31,6	-8,8
2,626	30,0	-8,6
2,6265	26,9	-8,4
2,627	21,8	-8,3
2,6275	14,7	-8,1
2,628	6,3	-7,4
2,6285	-2,6	-6,3
2,629	-11,7	-4,8
2,6295	-20,8	-3,4
2,63	-29,2	-2,2
2,6305	-35,8	-1,4
2,631	-39,6	-1,1
2,6315	-40,6	-1,2
2,632	-39,4	-1,5
2,6325	-36,7	-1,8
2,633	-32,8	-2,0
2,6335	-28,4	-1,6
2,634	-24,4	-0,9
2,6345	-21,4	-0,1
2,635	-20,2	0,2
2,6355	-20,6	-0,1
2,636	-21,9	-0,4
2,6365	-22,7	-0,5
2,637	-22,1	-0,4
2,6375	-20,1	0,0
2,638	-16,8	0,3
2,6385	-12,1	0,4
2,639	-6,2	0,0
2,6395	-0,4	-0,6
2,64	3,4	-1,1
2,6405	4,3	-1,3
2,641	2,4	-1,2
2,6415	-1,3	-1,2
2,642	-5,8	-1,4
2,6425	-10,4	-1,9
2,643	-15,1	-2,6
2,6435	-19,7	-3,2
2,644	-23,9	-3,6
2,6445	-27,5	-3,8
2,645	-30,0	-3,7
2,6455	-31,1	-3,5
2,646	-30,9	-3,5
2,6465	-29,7	-3,4
2,647	-27,7	-3,2
2,6475	-25,0	-2,5
2,648	-22,1	-1,7
2,6485	-19,3	-0,7
2,649	-15,2	0,4
2,6495	-7,9	1,3
2,65	3,1	2,2
2,6505	16,2	3,1
2,651	28,2	4,0
2,6515	37,1	4,9
2,652	42,1	5,6
2,6525	43,0	5,8
2,653	39,7	5,3
2,6535	31,9	4,3
2,654	19,8	2,7
2,6545	4,3	0,8
2,655	-12,5	-1,3
2,6555	-28,0	-3,5
2,656	-40,4	-5,5
2,6565	-49,1	-7,2
2,657	-53,9	-8,2
2,6575	-55,1	-8,6
2,658	-52,7	-8,3
2,6585	-47,3	-7,4
2,659	-39,6	-6,2
2,6595	-31,3	-4,9
2,66	-23,9	-3,8
2,6605	-18,3	-2,8
2,661	-14,5	-2,4
2,6615	-11,9	-2,5
2,662	-9,6	-2,9
2,6625	-7,3	-3,6
2,663	-4,5	-4,0
2,6635	-1,2	-4,1
2,664	2,0	-3,8
2,6645	4,6	-3,4
2,665	6,1	-3,0
2,6655	5,5	-2,7
2,666	2,4	-3,0
2,6665	-2,4	-3,8
2,667	-7,1	-4,7
2,6675	-9,4	-5,2
2,668	-8,6	-4,9
2,6685	-5,1	-4,1
2,669	-0,2	-3,0
2,6695	5,4	-1,8
2,67	12,3	-0,8
2,6705	21,7	-0,4
2,671	33,3	-0,7
2,6715	46,6	-1,7
2,672	60,7	-3,2
2,6725	75,0	-4,9
2,673	88,2	-6,5
2,6735	97,9	-7,9
2,674	102,8	-8,9
2,6745	101,7	-9,2
2,675	93,8	-8,8
2,6755	79,5	-7,9
2,676	60,0	-6,9
2,6765	37,8	-6,2
2,677	15,1	-5,6
2,6775	-6,1	-5,1
2,678	-24,3	-4,7
2,6785	-38,5	-4,4
2,679	-48,9	-4,2
2,6795	-55,6	-3,9
2,68	-59,0	-3,6
2,6805	-59,8	-3,1
2,681	-59,3	-2,4
2,6815	-57,6	-1,6
2,682	-54,5	-1,0
2,6825	-49,5	-1,0
2,683	-43,3	-1,8
2,6835	-37,0	-3,1
2,684	-30,3	-4,6
2,6845	-22,8	-5,8
2,685	-14,3	-6,3
2,6855	-5,8	-6,1
2,686	1,8	-5,3
2,6865	7,8	-4,6
2,687	12,1	-4,3
2,6875	14,7	-4,7
2,688	15,3	-5,7
2,6885	14,5	-6,9
2,689	12,7	-8,4
2,6895	10,5	-9,6
2,69	7,8	-10,4
2,6905	4,3	-10,6
2,691	0,3	-10,3
2,6915	-3,5	-9,8
2,692	-6,6	-9,4
2,6925	-8,8	-9,5
2,693	-10,8	-10,3
2,6935	-12,7	-11,2
2,694	-14,8	-11,6
2,6945	-16,7	-11,1
2,695	-18,0	-9,9
2,6955	-18,5	-8,5
2,696	-18,3	-7,3
2,6965	-17,6	-6,5
2,697	-16,4	-5,9
2,6975	-14,2	-5,5
2,698	-10,5	-5,3
2,6985	-5,5	-5,7
2,699	-0,2	-6,6
2,6995	4,8	-7,8
2,7	9,3	-8,7
2,7005	13,2	-9,3
2,701	16,4	-9,5
2,7015	18,9	-9,1
2,702	21,1	-8,3
2,7025	23,3	-7,5
2,703	25,1	-6,9
2,7035	26,0	-6,6
2,704	26,0	-6,6
2,7045	25,4	-6,8
2,705	24,4	-7,2
2,7055	23,0	-7,6
2,706	20,8	-8,0
2,7065	17,7	-8,4
2,707	13,4	-8,5
2,7075	8,1	-8,3
2,708	2,4	-7,8
2,7085	-3,2	-7,1
2,709	-7,9	-6,4
2,7095	-11,3	-6,4
2,71	-13,7	-7,0
2,7105	-15,4	-7,7
2,711	-16,5	-8,0
2,7115	-17,0	-7,8
2,712	-17,1	-7,4
2,7125	-16,8	-7,1
2,713	-15,8	-7,0
2,7135	-13,8	-7,0
2,714	-10,8	-7,2
2,7145	-7,0	-7,3
2,715	-3,3	-7,5
2,7155	-0,5	-7,6
2,716	1,7	-7,8
2,7165	4,1	-8,2
2,717	7,6	-8,8
2,7175	11,9	-9,3
2,718	16,3	-9,6
2,7185	20,0	-9,7
2,719	22,6	-9,7
2,7195	23,7	-10,1
2,72	22,8	-10,7
2,7205	20,2	-11,5
2,721	16,2	-12,2
2,7215	11,4	-12,6
2,722	6,3	-12,7
2,7225	1,3	-12,4
2,723	-3,0	-11,8
2,7235	-6,6	-11,1
2,724	-9,2	-10,4
2,7245	-10,2	-10,0
2,725	-9,3	-9,5
2,7255	-7,0	-9,2
2,726	-4,1	-9,1
2,7265	-1,7	-9,3
2,727	-0,4	-9,6
2,7275	0,0	-9,8
2,728	0,4	-10,0
2,7285	1,9	-10,5
2,729	4,7	-11,1
2,7295	8,2	-11,5
2,73	11,2	-11,4
2,7305	13,1	-11,2
2,731	13,9	-10,9
2,7315	14,5	-10,8
2,732	15,2	-11,0
2,7325	15,8	-10,9
2,733	16,1	-10,8
2,7335	16,4	-10,7
2,734	16,6	-10,7
2,7345	16,6	-10,8
2,735	16,2	-11,0
2,7355	15,4	-11,6
2,736	14,6	-12,6
2,7365	13,6	-13,9
2,737	12,7	-15,3
2,7375	11,6	-16,5
2,738	10,2	-17,3
2,7385	8,4	-17,9
2,739	6,1	-18,4
2,7395	3,3	-18,8
2,74	0,0	-18,9
2,7405	-3,2	-18,8
2,741	-5,7	-18,2
2,7415	-7,0	-17,2
2,742	-7,4	-16,0
2,7425	-7,4	-15,3
2,743	-7,3	-15,3
2,7435	-7,1	-16,0
2,744	-6,9	-16,5
2,7445	-6,9	-16,3
2,745	-7,6	-15,4
2,7455	-9,3	-14,1
2,746	-11,6	-13,0
2,7465	-14,1	-12,1
2,747	-16,4	-11,2
2,7475	-18,7	-10,3
2,748	-20,9	-9,8
2,7485	-22,7	-9,6
2,749	-23,8	-9,9
2,7495	-24,4	-10,6
2,75	-24,7	-11,5
2,7505	-25,1	-12,6
2,751	-25,6	-13,3
2,7515	-25,8	-13,4
2,752	-24,9	-13,1
2,7525	-22,8	-12,5
2,753	-20,1	-12,1
2,7535	-17,9	-12,3
2,754	-16,8	-13,2
2,7545	-15,9	-14,6
2,755	-14,1	-16,0
2,7555	-11,3	-17,1
2,756	-8,8	-17,4
2,7565	-7,5	-16,8
2,757	-7,8	-15,6
2,7575	-8,8	-14,1
2,758	-9,3	-12,8
2,7585	-9,1	-12,3
2,759	-7,9	-12,5
2,7595	-6,5	-13,3
2,76	-5,5	-14,4
2,7605	-5,5	-15,4
2,761	-6,3	-16,3
2,7615	-7,5	-16,8
2,762	-8,3	-17,1
2,7625	-8,7	-17,1
2,763	-8,5	-16,8
2,7635	-7,6	-16,4
2,764	-5,8	-16,1
2,7645	-2,9	-16,0
2,765	1,1	-16,2
2,7655	5,4	-16,8
2,766	9,6	-17,8
2,7665	13,6	-18,8
2,767	18,1	-19,6
2,7675	23,8	-19,8
2,768	30,2	-19,4
2,7685	36,4	-18,7
2,769	41,4	-18,1
2,7695	44,2	-17,7
2,77	44,4	-17,4
2,7705	42,5	-17,2
2,771	38,9	-16,9
2,7715	33,8	-16,7
2,772	27,0	-16,8
2,7725	17,7	-17,2
2,773	6,0	-17,7
2,7735	-7,1	-18,3
2,774	-19,8	-18,5
2,7745	-30,3	-18,0
2,775	-35,7	-16,6
2,7755	-33,2	-14,8
2,776	-22,5	-13,2
2,7765	-6,7	-12,2
2,777	9,6	-11,6
2,7775	22,9	-11,2
2,778	31,9	-10,8
2,7785	36,3	-10,8
2,779	36,4	-11,0
2,7795	33,1	-11,3
2,78	26,7	-11,6
2,7805	17,8	-11,8
2,781	7,3	-11,9
2,7815	-3,8	-12,2
2,782	-14,7	-12,7
2,7825	-24,9	-13,5
2,783	-34,3	-14,6
2,7835	-42,5	-15,7
2,784	-48,6	-16,2
2,7845	-51,8	-16,3
2,785	-51,5	-16,2
2,7855	-47,9	-15,9
2,786	-42,1	-15,4
2,7865	-34,9	-14,9
2,787	-26,4	-14,5
2,7875	-16,2	-14,3
2,788	-4,2	-14,4
2,7885	8,6	-14,7
2,789	20,3	-15,0
2,7895	29,7	-15,3
2,79	37,0	-15,4
2,7905	42,3	-15,4
2,791	45,6	-15,6
2,7915	46,2	-15,9
2,792	44,0	-16,4
2,7925	39,6	-17,0
2,793	33,8	-17,7
2,7935	27,4	-18,3
2,794	20,8	-18,8
2,7945	14,5	-18,9
2,795	9,1	-18,4
2,7955	4,7	-17,3
2,796	0,4	-15,8
2,7965	-4,2	-14,4
2,797	-9,0	-13,7
2,7975	-13,5	-14,0
2,798	-17,2	-15,1
2,7985	-19,5	-16,6
2,799	-19,8	-17,9
2,7995	-18,1	-18,9
2,8	-15,0	-19,4
2,8005	-11,6	-19,4
2,801	-8,8	-19,2
2,8015	-6,8	-18,7
2,802	-5,3	-18,2
2,8025	-4,1	-17,8
2,803	-3,1	-17,8
2,8035	-2,1	-18,1
2,804	-1,4	-18,6
2,8045	-1,4	-19,4
2,805	-1,9	-20,4
2,8055	-2,5	-21,4
2,806	-2,8	-22,1
2,8065	-1,8	-22,4
2,807	1,9	-22,4
2,8075	8,9	-22,2
2,808	18,4	-21,9
2,8085	29,2	-21,7
2,809	40,4	-21,6
2,8095	51,1	-21,8
2,81	59,9	-22,3
2,8105	65,3	-22,8
2,811	65,8	-23,2
2,8115	60,7	-23,2
2,812	50,2	-23,0
2,8125	35,4	-22,6
2,813	18,7	-22,2
2,8135	2,5	-21,4
2,814	-11,4	-20,4
2,8145	-22,3	-19,1
2,815	-30,2	-17,7
2,8155	-35,5	-16,5
2,816	-38,5	-15,9
2,8165	-39,5	-15,8
2,817	-39,1	-15,9
2,8175	-38,7	-15,8
2,818	-39,1	-15,5
2,8185	-39,8	-15,3
2,819	-39,0	-15,8
2,8195	-35,5	-16,8
2,82	-29,5	-18,4
2,8205	-21,8	-20,1
2,821	-13,5	-21,5
2,8215	-5,4	-22,6
2,822	1,1	-23,6
2,8225	4,8	-24,6
2,823	5,9	-25,1
2,8235	5,2	-25,0
2,824	3,9	-24,5
2,8245	3,1	-23,9
2,825	3,8	-23,5
2,8255	6,0	-23,0
2,826	9,2	-22,7
2,8265	12,3	-22,3
2,827	14,5	-22,1
2,8275	15,6	-21,8
2,828	15,8	-21,5
2,8285	15,2	-21,1
2,829	13,8	-20,8
2,8295	11,9	-20,3
2,83	9,5	-19,6
2,8305	6,7	-18,6
2,831	3,4	-17,5
2,8315	-0,1	-16,8
2,832	-3,5	-16,6
2,8325	-6,4	-16,9
2,833	-8,9	-17,7
2,8335	-11,4	-18,7
2,834	-14,2	-19,6
2,8345	-17,0	-20,3
2,835	-19,3	-20,7
2,8355	-20,7	-20,8
2,836	-21,2	-20,7
2,8365	-21,4	-20,6
2,837	-21,3	-20,3
2,8375	-20,8	-20,2
2,838	-19,9	-20,2
2,8385	-18,8	-20,3
2,839	-17,5	-20,5
2,8395	-16,0	-20,6
2,84	-14,3	-20,5
2,8405	-12,5	-20,2
2,841	-10,8	-19,6
2,8415	-9,3	-19,1
2,842	-7,7	-18,7
2,8425	-5,6	-18,2
2,843	-2,8	-17,8
2,8435	0,5	-17,3
2,844	3,4	-17,0
2,8445	6,0	-16,8
2,845	8,3	-16,6
2,8455	10,0	-16,2
2,846	11,1	-15,3
2,8465	11,2	-14,2
2,847	10,2	-13,2
2,8475	8,2	-12,5
2,848	5,1	-12,4
2,8485	1,3	-12,6
2,849	-3,0	-13,0
2,8495	-7,3	-13,7
2,85	-11,3	-14,6
2,8505	-15,0	-15,5
2,851	-18,3	-16,0
2,8515	-20,5	-15,9
2,852	-21,2	-15,5
2,8525	-20,3	-15,1
2,853	-18,2	-15,3
2,8535	-15,4	-15,7
2,854	-12,6	-16,0
2,8545	-9,7	-15,8
2,855	-7,0	-15,2
2,8555	-4,7	-14,4
2,856	-3,0	-13,8
2,8565	-2,2	-13,5
2,857	-1,9	-13,5
2,8575	-1,5	-13,6
2,858	-0,6	-13,6
2,8585	0,7	-13,4
2,859	2,1	-13,3
2,8595	3,4	-13,0
2,86	4,3	-12,9
2,8605	4,9	-12,9
2,861	5,4	-13,1
2,8615	6,3	-13,1
2,862	7,2	-12,9
2,8625	7,8	-12,5
2,863	7,9	-12,2
2,8635	7,5	-12,2
2,864	6,3	-12,7
2,8645	4,4	-13,6
2,865	1,7	-14,5
2,8655	-1,8	-14,9
2,866	-5,4	-14,8
2,8665	-8,8	-14,6
2,867	-11,3	-14,4
2,8675	-12,7	-14,3
2,868	-13,2	-14,1
2,8685	-13,7	-13,9
2,869	-14,7	-13,8
2,8695	-16,0	-13,7
2,87	-16,7	-13,6
2,8705	-16,0	-13,7
2,871	-14,2	-14,1
2,8715	-11,7	-15,0
2,872	-8,5	-16,1
2,8725	-4,8	-17,2
2,873	-0,8	-17,8
2,8735	3,3	-18,1
2,874	7,5	-17,9
2,8745	11,5	-17,4
2,875	14,9	-16,9
2,8755	17,2	-16,5
2,876	18,4	-16,4
2,8765	19,2	-16,5
2,877	19,9	-16,4
2,8775	20,7	-16,1
2,878	21,0	-15,5
2,8785	20,2	-14,8
2,879	17,5	-14,3
2,8795	12,9	-13,9
2,88	6,6	-13,7
2,8805	-0,6	-13,6
2,881	-7,9	-13,5
2,8815	-14,5	-13,3
2,882	-20,1	-13,0
2,8825	-24,7	-13,0
2,883	-28,2	-13,3
2,8835	-31,0	-14,1
2,884	-33,3	-14,9
2,8845	-34,9	-15,5
2,885	-35,8	-15,8
2,8855	-36,1	-15,8
2,886	-35,8	-15,6
2,8865	-35,1	-15,5
2,887	-33,6	-15,7
2,8875	-31,3	-16,3
2,888	-28,7	-17,1
2,8885	-26,2	-18,0
2,889	-24,2	-18,8
2,8895	-22,5	-19,4
2,89	-20,9	-19,8
2,8905	-19,0	-20,0
2,891	-15,9	-20,0
2,8915	-11,3	-19,8
2,892	-5,5	-19,7
2,8925	1,4	-19,6
2,893	9,6	-19,7
2,8935	18,5	-19,8
2,894	26,8	-19,8
2,8945	32,7	-19,6
2,895	35,5	-19,4
2,8955	35,2	-19,0
2,896	32,5	-18,3
2,8965	28,3	-17,1
2,897	23,2	-15,8
2,8975	17,4	-14,6
2,898	10,6	-13,7
2,8985	2,6	-13,0
2,899	-6,4	-12,5
2,8995	-15,3	-12,2
2,9	-23,1	-11,9
2,9005	-29,1	-11,4
2,901	-33,0	-10,8
2,9015	-35,3	-10,4
2,902	-35,8	-10,4
2,9025	-34,5	-10,5
2,903	-30,8	-10,4
2,9035	-24,9	-10,4
2,904	-18,0	-10,9
2,9045	-12,0	-12,1
2,905	-8,3	-13,8
2,9055	-7,4	-15,6
2,906	-8,4	-16,9
2,9065	-10,1	-17,6
2,907	-11,8	-17,5
2,9075	-13,6	-16,8
2,908	-15,4	-15,5
2,9085	-17,2	-13,9
2,909	-18,9	-12,4
2,9095	-20,7	-11,2
2,91	-22,4	-10,5
2,9105	-23,3	-10,3
2,911	-22,7	-10,6
2,9115	-20,3	-11,3
2,912	-16,4	-12,3
2,9125	-11,9	-13,5
2,913	-7,5	-14,5
2,9135	-3,7	-14,9
2,914	-0,7	-14,8
2,9145	1,6	-14,3
2,915	3,6	-13,8
2,9155	5,6	-13,3
2,916	7,7	-13,1
2,9165	9,6	-13,2
2,917	10,7	-13,8
2,9175	10,6	-14,7
2,918	9,8	-15,4
2,9185	8,9	-15,8
2,919	8,5	-16,0
2,9195	8,6	-16,3
2,92	9,3	-16,6
2,9205	10,9	-16,9
2,921	13,0	-16,9
2,9215	15,1	-16,8
2,922	16,5	-16,6
2,9225	16,4	-16,5
2,923	14,7	-16,6
2,9235	11,6	-16,7
2,924	8,1	-16,6
2,9245	5,2	-16,2
2,925	3,3	-15,6
2,9255	2,4	-15,1
2,926	2,2	-15,0
2,9265	2,3	-15,3
2,927	1,9	-15,7
2,9275	0,2	-16,2
2,928	-3,0	-16,4
2,9285	-7,0	-16,4
2,929	-10,6	-16,0
2,9295	-12,7	-15,6
2,93	-13,2	-15,1
2,9305	-12,4	-14,7
2,931	-10,5	-14,3
2,9315	-7,3	-14,3
2,932	-2,7	-14,7
2,9325	2,8	-15,3
2,933	8,6	-16,1
2,9335	13,8	-16,9
2,934	18,1	-17,5
2,9345	21,8	-17,6
2,935	25,5	-17,5
2,9355	30,0	-17,4
2,936	35,5	-17,2
2,9365	41,7	-16,7
2,937	47,8	-16,1
2,9375	52,8	-15,8
2,938	55,7	-15,9
2,9385	56,0	-16,0
2,939	53,7	-15,4
2,9395	49,6	-14,1
2,94	44,3	-12,3
2,9405	38,2	-10,7
2,941	31,2	-9,5
2,9415	24,1	-8,7
2,942	17,5	-8,7
2,9425	11,8	-9,5
2,943	6,4	-11,3
2,9435	1,0	-13,8
2,944	-4,5	-16,2
2,9445	-9,7	-18,2
2,945	-14,1	-19,3
2,9455	-17,9	-19,3
2,946	-21,0	-18,4
2,9465	-21,9	-16,9
2,947	-18,6	-15,1
2,9475	-10,5	-13,4
2,948	0,5	-12,2
2,9485	11,0	-11,7
2,949	19,0	-11,7
2,9495	24,0	-11,9
2,95	26,5	-12,1
2,9505	26,4	-12,3
2,951	23,4	-12,2
2,9515	17,3	-12,0
2,952	8,2	-11,6
2,9525	-3,4	-11,5
2,953	-16,4	-11,7
2,9535	-29,7	-12,3
2,954	-41,9	-13,5
2,9545	-51,8	-14,9
2,955	-59,0	-16,2
2,9555	-63,3	-17,4
2,956	-64,5	-18,3
2,9565	-62,5	-19,1
2,957	-57,1	-19,5
2,9575	-49,0	-19,1
2,958	-39,4	-17,9
2,9585	-29,4	-16,1
2,959	-19,8	-14,2
2,9595	-10,9	-12,7
2,96	-3,0	-11,9
2,9605	3,6	-11,8
2,961	9,2	-12,0
2,9615	14,4	-12,1
2,962	20,5	-11,6
2,9625	28,1	-10,8
2,963	36,6	-10,0
2,9635	44,3	-9,4
2,964	50,2	-9,4
2,9645	54,3	-9,8
2,965	56,8	-10,6
2,9655	57,6	-11,6
2,966	55,9	-12,8
2,9665	51,1	-14,1
2,967	42,4	-15,2
2,9675	29,8	-15,8
2,968	14,4	-15,9
2,9685	-1,6	-15,7
2,969	-16,6	-15,1
2,9695	-29,5	-14,5
2,97	-39,4	-13,8
2,9705	-44,5	-13,2
2,971	-43,7	-12,9
2,9715	-37,6	-12,8
2,972	-28,4	-13,0
2,9725	-18,6	-13,2
2,973	-10,4	-13,1
2,9735	-5,1	-12,4
2,974	-2,5	-11,3
2,9745	-1,3	-9,6
2,975	-0,4	-8,0
2,9755	0,0	-6,9
2,976	-0,7	-6,7
2,9765	-2,9	-7,5
2,977	-6,0	-8,8
2,9775	-9,7	-10,1
2,978	-13,7	-11,2
2,9785	-17,8	-12,0
2,979	-21,5	-12,5
2,9795	-24,5	-13,0
2,98	-26,5	-13,5
2,9805	-27,3	-14,4
2,981	-26,8	-15,6
2,9815	-25,0	-16,8
2,982	-20,8	-18,1
2,9825	-13,2	-19,1
2,983	-2,4	-19,8
2,9835	10,1	-20,1
2,984	22,1	-19,9
2,9845	32,1	-19,2
2,985	39,4	-18,3
2,9855	44,1	-17,6
2,986	46,7	-17,4
2,9865	47,5	-17,6
2,987	46,5	-18,1
2,9875	43,8	-18,3
2,988	39,8	-17,9
2,9885	34,7	-17,0
2,989	28,9	-15,7
2,9895	22,4	-14,2
2,99	15,7	-12,7
2,9905	8,7	-11,6
2,991	1,4	-10,9
2,9915	-5,7	-10,5
2,992	-11,8	-10,4
2,9925	-16,3	-10,6
2,993	-19,0	-10,9
2,9935	-20,7	-11,2
2,994	-21,8	-11,4
2,9945	-22,2	-11,3
2,995	-21,9	-11,2
2,9955	-21,2	-11,1
2,996	-19,9	-11,1
2,9965	-18,1	-11,2
2,997	-15,3	-11,5
2,9975	-11,9	-11,9
2,998	-8,5	-12,6
2,9985	-5,3	-13,3
2,999	-2,4	-14,1
2,9995	0,7	-15,0
3	4,1	-15,9
3,0005	7,7	-16,6
3,001	11,2	-17,0
3,0015	14,1	-17,1
3,002	16,0	-16,9
3,0025	16,8	-16,7
3,003	16,7	-16,7
3,0035	15,5	-17,1
3,004	13,4	-18,2
3,0045	10,8	-19,8
3,005	8,1	-21,3
3,0055	5,5	-22,4
3,006	3,1	-22,7
3,0065	1,2	-22,3
3,007	-0,0	-21,1
3,0075	-0,5	-19,2
3,008	-0,7	-16,9
3,0085	-1,5	-14,9
3,009	-3,1	-13,8
3,0095	-5,1	-13,8
3,01	-7,0	-14,4
3,0105	-8,5	-15,1
3,011	-9,4	-15,7
3,0115	-9,7	-16,2
3,012	-9,3	-16,7
3,0125	-8,3	-17,0
3,013	-6,8	-17,0
3,0135	-5,4	-16,7
3,014	-4,6	-16,3
3,0145	-4,1	-15,8
3,015	-3,8	-15,2
3,0155	-3,5	-14,4
3,016	-3,2	-13,8
3,0165	-2,9	-13,2
3,017	-3,2	-12,8
3,0175	-4,2	-12,3
3,018	-5,6	-11,8
3,0185	-6,5	-11,4
3,019	-6,2	-11,4
3,0195	-4,5	-11,6
3,02	-2,1	-11,6
3,0205	0,4	-11,4
3,021	2,1	-11,2
3,0215	2,9	-11,1
3,022	2,9	-11,3
3,0225	2,3	-11,5
3,023	0,7	-11,5
3,0235	-1,9	-11,2
3,024	-5,2	-10,5
3,0245	-8,7	-9,8
3,025	-11,6	-9,3
3,0255	-13,8	-9,3
3,026	-15,4	-9,9
3,0265	-16,7	-10,8
3,027	-17,4	-11,8
3,0275	-17,4	-12,7
3,028	-17,0	-13,4
3,0285	-16,8	-13,9
3,029	-16,7	-14,3
3,0295	-16,1	-14,3
3,03	-14,5	-14,0
3,0305	-11,8	-13,3
3,031	-8,3	-12,4
3,0315	-4,5	-11,3
3,032	-0,9	-10,5
3,0325	2,0	-10,0
3,033	4,2	-9,9
3,0335	5,9	-10,2
3,034	7,8	-10,4
3,0345	11,2	-10,6
3,035	16,6	-10,8
3,0355	23,1	-10,9
3,036	28,8	-11,0
3,0365	32,0	-11,3
3,037	32,3	-11,7
3,0375	30,4	-12,4
3,038	27,4	-13,5
3,0385	24,3	-14,7
3,039	21,5	-15,6
3,0395	19,1	-15,9
3,04	16,5	-15,8
3,0405	13,8	-15,6
3,041	11,0	-15,2
3,0415	8,4	-14,8
3,042	6,5	-14,3
3,0425	5,8	-13,9
3,043	6,6	-13,8
3,0435	8,8	-13,9
3,044	11,1	-14,2
3,0445	13,0	-14,3
3,045	14,0	-14,0
3,0455	13,7	-13,3
3,046	11,7	-12,2
3,0465	8,1	-11,1
3,047	3,7	-10,0
3,0475	-0,2	-9,3
3,048	-3,0	-8,8
3,0485	-4,3	-8,8
3,049	-4,1	-9,0
3,0495	-2,7	-9,3
3,05	-0,8	-9,5
3,0505	0,6	-9,7
3,051	0,7	-9,8
3,0515	-0,4	-10,0
3,052	-2,2	-10,1
3,0525	-3,8	-10,2
3,053	-4,5	-10,2
3,0535	-4,1	-10,0
3,054	-2,7	-9,6
3,0545	-1,1	-9,3
3,055	-0,1	-9,3
3,0555	0,3	-9,6
3,056	-0,1	-10,2
3,0565	-0,9	-10,8
3,057	-1,9	-11,4
3,0575	-2,7	-11,8
3,058	-3,0	-12,3
3,0585	-2,9	-12,5
3,059	-1,9	-12,7
3,0595	0,1	-12,8
3,06	3,3	-12,7
3,0605	7,3	-12,3
3,061	11,8	-11,6
3,0615	16,3	-10,7
3,062	20,6	-9,9
3,0625	24,2	-9,4
3,063	26,9	-9,1
3,0635	28,3	-8,8
3,064	28,4	-8,3
3,0645	27,4	-7,7
3,065	25,8	-7,2
3,0655	24,0	-6,8
3,066	22,4	-6,6
3,0665	20,9	-6,6
3,067	19,1	-6,8
3,0675	16,8	-6,9
3,068	14,6	-7,2
3,0685	12,8	-7,7
3,069	11,2	-8,3
3,0695	9,5	-9,0
3,07	7,4	-9,5
3,0705	4,9	-10,1
3,071	2,5	-10,8
3,0715	0,6	-11,4
3,072	-0,6	-11,8
3,0725	-1,2	-11,6
3,073	-1,1	-11,3
3,0735	-0,1	-11,2
3,074	1,9	-11,6
3,0745	4,6	-12,4
3,075	7,8	-13,3
3,0755	11,6	-14,2
3,076	16,3	-14,8
3,0765	22,1	-15,1
3,077	28,6	-15,2
3,0775	34,7	-15,0
3,078	39,8	-14,6
3,0785	43,4	-14,0
3,079	45,2	-13,2
3,0795	45,5	-12,1
3,08	45,3	-10,8
3,0805	45,7	-9,5
3,081	46,5	-8,3
3,0815	46,7	-7,3
3,082	44,9	-6,8
3,0825	40,8	-6,6
3,083	34,7	-6,8
3,0835	27,3	-7,1
3,084	19,1	-7,3
3,0845	10,6	-7,4
3,085	1,9	-7,5
3,0855	-6,4	-7,7
3,086	-13,9	-8,1
3,0865	-20,2	-8,5
3,087	-25,1	-8,9
3,0875	-28,8	-9,3
3,088	-31,3	-9,9
3,0885	-32,9	-10,7
3,089	-33,3	-11,7
3,0895	-31,8	-12,7
3,09	-28,2	-13,0
3,0905	-22,6	-12,2
3,091	-16,1	-10,4
3,0915	-10,3	-8,4
3,092	-5,7	-6,7
3,0925	-2,3	-5,7
3,093	0,3	-5,5
3,0935	2,0	-5,9
3,094	2,5	-6,6
3,0945	2,2	-7,3
3,095	1,6	-7,7
3,0955	1,3	-7,7
3,096	1,2	-7,7
3,0965	0,7	-7,6
3,097	-0,1	-7,6
3,0975	-1,0	-7,6
3,098	-1,6	-7,4
3,0985	-1,3	-7,3
3,099	-0,3	-7,3
3,0995	1,6	-7,4
3,1	3,6	-7,8
3,1005	5,2	-8,0
3,101	5,9	-8,1
3,1015	6,1	-7,9
3,102	6,1	-7,9
3,1025	6,0	-8,2
3,103	5,7	-8,7
3,1035	5,4	-9,3
3,104	5,6	-9,9
3,1045	6,2	-10,4
3,105	7,1	-10,9
3,1055	8,2	-11,6
3,106	9,5	-12,3
3,1065	11,2	-13,0
3,107	13,1	-13,0
3,1075	15,0	-12,3
3,108	16,8	-11,1
3,1085	18,1	-9,7
3,109	18,6	-8,8
3,1095	18,3	-8,8
3,11	17,0	-9,5
3,1105	15,4	-10,3
3,111	14,0	-10,8
3,1115	12,9	-10,8
3,112	11,8	-10,2
3,1125	11,5	-9,3
3,113	13,3	-8,3
3,1135	17,7	-7,5
3,114	24,2	-7,0
3,1145	31,6	-7,0
3,115	39,0	-7,6
3,1155	45,6	-8,5
3,116	50,5	-9,2
3,1165	52,9	-9,8
3,117	52,3	-10,1
3,1175	48,8	-9,9
3,118	42,8	-9,0
3,1185	35,2	-7,6
3,119	26,9	-5,9
3,1195	18,9	-4,3
3,12	11,5	-2,8
3,1205	4,7	-1,9
3,121	-1,6	-1,5
3,1215	-7,2	-1,9
3,122	-11,6	-3,0
3,1225	-14,5	-4,5
3,123	-16,0	-6,0
3,1235	-16,4	-7,3
3,124	-16,0	-8,1
3,1245	-14,6	-8,1
3,125	-11,8	-7,4
3,1255	-7,9	-6,5
3,126	-3,8	-6,2
3,1265	-1,1	-6,8
3,127	-0,1	-8,2
3,1275	0,3	-10,0
3,128	2,0	-11,7
3,1285	5,8	-12,7
3,129	11,1	-13,1
3,1295	16,1	-12,9
3,13	20,0	-12,8
3,1305	22,4	-12,8
3,131	23,5	-12,8
3,1315	23,3	-12,7
3,132	22,0	-12,3
3,1325	20,2	-11,7
3,133	17,9	-11,2
3,1335	15,1	-10,8
3,134	11,6	-10,6
3,1345	7,7	-10,1
3,135	4,1	-9,6
3,1355	0,7	-9,1
3,136	-2,4	-8,8
3,1365	-5,3	-8,9
3,137	-7,7	-9,5
3,1375	-9,5	-10,3
3,138	-10,6	-11,0
3,1385	-10,6	-11,4
3,139	-9,7	-11,4
3,1395	-8,5	-11,2
3,14	-8,4	-10,9
3,1405	-10,1	-11,0
3,141	-13,6	-11,2
3,1415	-18,0	-11,3
3,142	-22,1	-11,2
3,1425	-24,6	-10,9
3,143	-24,6	-10,8
3,1435	-21,5	-10,8
3,144	-16,1	-10,9
3,1445	-10,2	-10,9
3,145	-5,3	-10,7
3,1455	-1,6	-10,2
3,146	1,3	-9,8
3,1465	3,7	-9,5
3,147	5,5	-9,3
3,1475	6,4	-9,2
3,148	6,7	-9,2
3,1485	7,0	-9,3
3,149	8,8	-9,6
3,1495	14,0	-10,1
3,15	23,3	-10,8
3,1505	35,9	-11,6
3,151	50,1	-12,1
3,1515	64,0	-12,5
3,152	76,4	-12,8
3,1525	86,2	-13,3
3,153	92,3	-13,8
3,1535	94,5	-14,6
3,154	92,8	-15,5
3,1545	86,9	-16,7
3,155	77,2	-17,5
3,1555	64,6	-17,8
3,156	50,0	-17,5
3,1565	34,1	-16,8
3,157	17,8	-15,6
3,1575	1,9	-13,7
3,158	-12,5	-11,2
3,1585	-24,4	-8,4
3,159	-33,1	-5,9
3,1595	-38,0	-4,1
3,16	-39,5	-3,1
3,1605	-38,8	-2,6
3,161	-37,8	-2,6
3,1615	-36,7	-2,8
3,162	-35,2	-3,2
3,1625	-32,3	-3,8
3,163	-27,8	-4,7
3,1635	-21,9	-5,7
3,164	-14,4	-6,7
3,1645	-6,0	-7,6
3,165	2,1	-8,3
3,1655	8,2	-8,8
3,166	11,5	-9,3
3,1665	11,6	-10,1
3,167	9,3	-10,9
3,1675	5,8	-11,6
3,168	2,2	-12,0
3,1685	-0,5	-12,2
3,169	-2,0	-12,2
3,1695	-2,1	-12,4
3,17	-1,3	-12,9
3,1705	-0,5	-13,8
3,171	0,0	-14,8
3,1715	0,4	-15,6
3,172	0,8	-16,3
3,1725	0,8	-16,9
3,173	0,3	-17,6
3,1735	-1,0	-18,1
3,174	-2,7	-17,8
3,1745	-4,2	-16,5
3,175	-5,0	-14,4
3,1755	-4,9	-12,3
3,176	-3,6	-10,7
3,1765	-0,9	-9,7
3,177	3,0	-9,2
3,1775	7,3	-8,8
3,178	10,6	-8,4
3,1785	12,0	-8,0
3,179	11,4	-7,6
3,1795	9,7	-7,4
3,18	7,8	-7,1
3,1805	6,3	-7,0
3,181	4,9	-7,1
3,1815	3,5	-7,5
3,182	2,0	-7,9
3,1825	1,0	-8,3
3,183	0,8	-8,6
3,1835	1,0	-8,8
3,184	1,1	-8,6
3,1845	0,4	-8,3
3,185	-1,1	-7,9
3,1855	-2,9	-7,9
3,186	-3,7	-8,3
3,1865	-2,9	-9,2
3,187	-0,7	-10,2
3,1875	2,2	-11,1
3,188	5,2	-11,9
3,1885	7,9	-12,4
3,189	9,8	-12,7
3,1895	10,9	-12,7
3,19	11,2	-12,3
3,1905	10,8	-11,6
3,191	9,7	-10,4
3,1915	7,8	-9,1
3,192	5,4	-7,6
3,1925	3,3	-6,7
3,193	2,2	-6,7
3,1935	2,9	-7,6
3,194	5,3	-9,2
3,1945	8,5	-10,8
3,195	11,5	-12,1
3,1955	13,3	-13,1
3,196	13,2	-13,9
3,1965	11,2	-14,3
3,197	8,5	-14,3
3,1975	6,3	-13,8
3,198	5,2	-12,9
3,1985	4,8	-11,9
3,199	4,8	-11,0
3,1995	4,7	-10,5
3,2	4,4	-10,4
3,2005	3,9	-10,6
3,201	3,4	-10,9
3,2015	2,9	-11,2
3,202	2,8	-11,2
3,2025	2,9	-10,8
3,203	3,2	-10,2
3,2035	3,8	-9,5
3,204	4,9	-8,9
3,2045	6,2	-8,7
3,205	7,2	-8,7
3,2055	7,7	-9,0
3,206	8,7	-9,5
3,2065	11,3	-10,1
3,207	17,4	-10,8
3,2075	28,3	-11,4
3,208	43,4	-12,0
3,2085	60,4	-12,4
3,209	76,5	-12,9
3,2095	89,9	-13,5
3,21	99,3	-14,2
3,2105	103,2	-14,7
3,211	100,3	-15,1
3,2115	90,1	-15,6
3,212	73,7	-16,2
3,2125	52,8	-16,8
3,213	29,5	-16,9
3,2135	5,8	-16,4
3,214	-16,7	-15,3
3,2145	-36,3	-13,6
3,215	-51,7	-11,3
3,2155	-62,6	-8,6
3,216	-68,9	-6,3
3,2165	-71,3	-4,9
3,217	-70,3	-4,6
3,2175	-66,1	-4,9
3,218	-58,7	-5,4
3,2185	-48,5	-6,1
3,219	-36,5	-6,8
3,2195	-24,1	-7,3
3,22	-12,5	-7,4
3,2205	-2,4	-7,6
3,221	6,2	-8,0
3,2215	13,4	-9,0
3,222	19,6	-10,3
3,2225	24,7	-11,5
3,223	28,1	-12,3
3,2235	29,0	-12,4
3,224	26,9	-12,0
3,2245	22,1	-11,3
3,225	15,7	-10,7
3,2255	8,8	-10,2
3,226	2,4	-9,5
3,2265	-2,5	-8,7
3,227	-4,6	-7,9
3,2275	-3,9	-7,3
3,228	-1,5	-7,2
3,2285	1,0	-7,6
3,229	2,6	-8,3
3,2295	3,4	-8,8
3,23	3,9	-9,1
3,2305	4,8	-9,1
3,231	6,9	-8,9
3,2315	10,8	-8,9
3,232	15,8	-9,1
3,2325	21,1	-9,6
3,233	25,3	-10,2
3,2335	27,6	-10,8
3,234	27,4	-11,2
3,2345	25,2	-11,3
3,235	21,7	-11,2
3,2355	18,3	-10,9
3,236	16,0	-10,5
3,2365	15,3	-10,2
3,237	15,7	-10,2
3,2375	16,5	-10,7
3,238	16,9	-11,7
3,2385	16,8	-12,9
3,239	16,1	-13,8
3,2395	14,9	-14,3
3,24	13,1	-14,4
3,2405	10,5	-14,1
3,241	7,4	-13,5
3,2415	4,9	-12,7
3,242	3,8	-12,0
3,2425	4,7	-11,4
3,243	7,1	-11,3
3,2435	10,9	-11,5
3,244	15,9	-12,0
3,2445	21,4	-12,2
3,245	26,8	-12,0
3,2455	30,9	-11,3
3,246	33,5	-10,3
3,2465	34,7	-9,2
3,247	35,3	-8,0
3,2475	35,9	-7,1
3,248	36,4	-6,7
3,2485	36,7	-6,8
3,249	36,8	-7,1
3,2495	36,8	-7,2
3,25	36,5	-6,9
3,2505	35,6	-6,3
3,251	33,8	-5,5
3,2515	31,0	-5,0
3,252	27,5	-4,9
3,2525	23,7	-5,3
3,253	19,7	-5,8
3,2535	15,8	-6,4
3,254	11,9	-7,0
3,2545	8,1	-7,8
3,255	4,6	-8,7
3,2555	1,5	-9,3
3,256	-1,4	-9,4
3,2565	-4,1	-8,6
3,257	-6,4	-7,1
3,2575	-7,0	-5,2
3,258	-3,6	-3,8
3,2585	5,8	-3,1
3,259	20,8	-2,9
3,2595	38,7	-3,1
3,26	56,3	-3,4
3,2605	71,3	-3,8
3,261	82,3	-4,3
3,2615	88,6	-4,6
3,262	89,8	-4,5
3,2625	85,8	-3,8
3,263	77,0	-2,7
3,2635	63,9	-1,5
3,264	48,2	-0,5
3,2645	31,8	0,0
3,265	16,6	0,0
3,2655	3,6	-0,5
3,266	-7,0	-1,4
3,2665	-15,5	-2,4
3,267	-22,4	-3,3
3,2675	-27,8	-3,8
3,268	-31,4	-3,9
3,2685	-33,8	-3,8
3,269	-35,4	-3,5
3,2695	-36,7	-3,2
3,27	-37,2	-2,9
3,2705	-36,0	-2,8
3,271	-32,8	-2,8
3,2715	-28,0	-2,9
3,272	-22,4	-2,8
3,2725	-16,2	-2,6
3,273	-9,3	-2,2
3,2735	-1,6	-1,9
3,274	6,4	-1,7
3,2745	14,0	-1,9
3,275	20,3	-2,4
3,2755	24,7	-3,3
3,276	27,2	-4,3
3,2765	27,5	-5,2
3,277	25,9	-6,1
3,2775	22,5	-6,8
3,278	17,3	-6,9
3,2785	10,5	-6,5
3,279	2,7	-5,8
3,2795	-4,8	-5,0
3,28	-10,8	-4,6
3,2805	-14,5	-4,2
3,281	-15,8	-3,8
3,2815	-15,4	-3,4
3,282	-13,8	-3,0
3,2825	-11,7	-2,7
3,283	-9,9	-2,3
3,2835	-8,7	-2,0
3,284	-8,3	-1,4
3,2845	-8,9	-0,7
3,285	-10,2	0,1
3,2855	-11,7	0,6
3,286	-12,6	0,7
3,2865	-12,8	0,4
3,287	-12,1	-0,3
3,2875	-10,9	-1,1
3,288	-9,2	-2,1
3,2885	-7,0	-3,3
3,289	-4,5	-4,3
3,2895	-2,3	-5,1
3,29	-0,5	-5,7
3,2905	0,6	-5,9
3,291	1,3	-5,8
3,2915	2,0	-5,3
3,292	3,1	-4,1
3,2925	5,0	-2,7
3,293	7,8	-1,2
3,2935	11,4	-0,2
3,294	16,2	0,2
3,2945	21,7	-0,1
3,295	27,0	-0,8
3,2955	30,4	-1,4
3,296	31,6	-1,8
3,2965	31,6	-1,8
3,297	31,5	-1,8
3,2975	31,8	-2,0
3,298	32,3	-2,3
3,2985	32,3	-2,6
3,299	31,7	-2,5
3,2995	29,9	-2,2
3,3	27,2	-1,8
3,3005	23,8	-1,2
3,301	20,5	-0,2
3,3015	17,7	0,9
3,302	15,9	2,0
3,3025	15,0	2,8
3,303	14,9	3,4
3,3035	15,4	3,7
3,304	16,2	3,3
3,3045	16,5	2,3
3,305	15,7	1,0
3,3055	13,9	-0,2
3,306	12,3	-0,8
3,3065	11,9	-0,8
3,307	13,1	-0,4
3,3075	14,8	0,4
3,308	15,9	1,6
3,3085	16,1	3,0
3,309	15,8	4,2
3,3095	15,3	4,6
3,31	13,9	4,5
3,3105	11,0	4,1
3,311	6,9	3,7
3,3115	3,1	3,4
3,312	0,4	3,4
3,3125	-0,4	3,7
3,313	0,3	4,1
3,3135	1,6	4,4
3,314	2,9	4,4
3,3145	3,9	4,0
3,315	5,5	3,5
3,3155	8,2	3,0
3,316	12,1	2,8
3,3165	16,3	2,8
3,317	20,2	3,4
3,3175	23,2	4,5
3,318	25,2	5,9
3,3185	26,2	7,1
3,319	26,6	7,9
3,3195	26,9	8,2
3,32	27,2	8,1
3,3205	27,3	7,6
3,321	27,4	6,8
3,3215	27,5	5,9
3,322	27,5	5,1
3,3225	27,4	4,5
3,323	27,1	4,2
3,3235	26,8	4,0
3,324	26,7	4,0
3,3245	27,2	4,3
3,325	28,4	4,7
3,3255	30,3	5,0
3,326	32,7	5,2
3,3265	35,2	5,4
3,327	37,6	6,0
3,3275	39,6	7,2
3,328	40,5	8,8
3,3285	40,1	11,0
3,329	38,5	13,5
3,3295	36,4	15,9
3,33	34,2	17,9
3,3305	32,2	19,2
3,331	30,0	19,6
3,3315	27,2	19,3
3,332	23,5	18,4
3,3325	19,1	16,9
3,333	14,5	15,1
3,3335	10,4	13,6
3,334	6,9	12,4
3,3345	4,3	11,7
3,335	2,4	11,1
3,3355	1,4	10,5
3,336	1,3	10,1
3,3365	2,2	9,9
3,337	4,0	9,8
3,3375	6,3	9,6
3,338	8,6	9,0
3,3385	9,9	8,2
3,339	9,8	7,6
3,3395	8,4	7,4
3,34	6,5	7,5
3,3405	5,1	7,3
3,341	4,4	6,6
3,3415	4,4	5,6
3,342	4,8	4,8
3,3425	5,5	4,2
3,343	6,4	3,7
3,3435	7,0	3,3
3,344	6,9	2,7
3,3445	6,4	2,0
3,345	6,2	1,4
3,3455	6,7	1,0
3,346	7,7	0,8
3,3465	8,8	0,4
3,347	9,4	0,0
3,3475	9,3	-0,4
3,348	8,8	-0,5
3,3485	8,4	-0,3
3,349	8,2	-0,2
3,3495	7,9	-0,3
3,35	7,5	-0,5
3,3505	7,0	-0,6
3,351	6,7	-0,6
3,3515	7,2	-0,6
3,352	8,1	-0,9
3,3525	8,5	-1,7
3,353	7,7	-2,8
3,3535	5,7	-4,2
3,354	3,6	-5,8
3,3545	2,3	-7,4
3,355	1,7	-8,6
3,3555	1,3	-9,2
3,356	0,7	-9,1
3,3565	0,1	-8,7
3,357	0,0	-8,1
3,3575	0,9	-7,5
3,358	3,3	-6,7
3,3585	7,2	-5,9
3,359	12,2	-5,3
3,3595	17,2	-4,9
3,36	20,9	-4,8
3,3605	23,0	-4,8
3,361	23,4	-5,1
3,3615	22,6	-5,7
3,362	21,2	-6,2
3,3625	19,9	-6,5
3,363	19,3	-6,4
3,3635	19,3	-6,2
3,364	19,4	-5,9
3,3645	19,5	-5,9
3,365	19,3	-6,3
