Interval=	0,0005 s
ExcelDateTime=	4,5911514261550008e+004	11/09/2025 12:20:32,197921
TimeFormat=	StartOfBlock
DateFormat=	
ChannelTitle=	Biceps	Triceps
Range=	1000,0 µV	1000,0 µV
0	0,2	0,0
0,0005	2,2	0,3
0,001	8,1	1,2
0,0015	17,7	2,6
0,002	27,9	4,3
0,0025	35,7	5,6
0,003	40,7	6,7
0,0035	43,7	7,4
0,004	45,1	8,0
0,0045	45,2	8,4
0,005	44,6	8,6
0,0055	44,0	8,3
0,006	42,9	7,7
0,0065	40,0	6,8
0,007	34,5	5,9
0,0075	27,2	5,4
0,008	19,2	5,5
0,0085	11,7	6,3
0,009	4,8	7,8
0,0095	-1,4	9,6
0,01	-6,8	11,2
0,0105	-10,8	12,4
0,011	-13,5	13,2
0,0115	-15,4	13,5
0,012	-17,2	13,5
0,0125	-18,8	13,3
0,013	-19,6	13,1
0,0135	-19,0	13,2
0,014	-16,8	13,3
0,0145	-13,3	13,2
0,015	-9,1	12,5
0,0155	-5,2	11,5
0,016	-2,1	10,3
0,0165	0,1	9,1
0,017	1,9	8,4
0,0175	3,9	8,1
0,018	6,1	7,7
0,0185	7,9	6,7
0,019	9,4	5,6
0,0195	10,6	5,1
0,02	11,0	5,8
0,0205	10,4	7,3
0,021	8,8	9,1
0,0215	6,9	10,8
0,022	5,2	12,2
0,0225	3,8	13,2
0,023	3,1	13,9
0,0235	3,7	14,6
0,024	5,4	15,0
0,0245	7,3	14,7
0,025	8,2	13,8
0,0255	7,7	12,6
0,026	6,4	11,4
0,0265	4,9	10,5
0,027	4,2	9,8
0,0275	4,7	9,3
0,028	6,7	9,3
0,0285	9,3	9,4
0,029	11,6	9,4
0,0295	12,5	9,3
0,03	11,7	9,3
0,0305	9,5	9,6
0,031	6,6	10,4
0,0315	2,8	11,4
0,032	-1,8	12,4
0,0325	-7,3	13,2
0,033	-12,5	13,5
0,0335	-17,2	13,4
0,034	-21,0	13,1
0,0345	-23,8	13,0
0,035	-25,7	13,3
0,0355	-26,2	14,1
0,036	-25,6	15,0
0,0365	-23,8	15,8
0,037	-20,3	16,4
0,0375	-14,3	16,9
0,038	-5,1	17,2
0,0385	7,6	17,2
0,039	24,3	17,1
0,0395	44,7	17,0
0,04	66,0	17,1
0,0405	83,8	17,4
0,041	94,6	17,8
0,0415	97,2	18,5
0,042	92,4	19,1
0,0425	81,5	19,5
0,043	65,9	19,8
0,0435	46,8	19,7
0,044	25,3	19,0
0,0445	3,1	17,7
0,045	-17,8	15,9
0,0455	-35,6	14,1
0,046	-49,1	12,9
0,0465	-58,1	12,5
0,047	-62,9	13,0
0,0475	-63,9	13,8
0,048	-61,1	14,4
0,0485	-54,6	14,4
0,049	-45,2	13,6
0,0495	-34,4	12,3
0,05	-23,1	11,0
0,0505	-11,9	10,2
0,051	-0,6	10,0
0,0515	10,3	10,3
0,052	19,5	10,9
0,0525	26,3	11,7
0,053	29,9	12,6
0,0535	30,6	13,3
0,054	28,7	14,0
0,0545	25,1	14,4
0,055	21,3	14,5
0,0555	18,3	14,2
0,056	16,5	13,7
0,0565	15,7	13,4
0,057	15,1	13,4
0,0575	14,2	13,8
0,058	12,8	14,4
0,0585	11,5	15,0
0,059	11,1	15,7
0,0595	11,9	16,7
0,06	13,8	17,9
0,0605	16,4	19,0
0,061	19,2	19,2
0,0615	21,6	18,3
0,062	23,1	16,7
0,0625	23,2	15,1
0,063	21,7	13,9
0,0635	18,3	13,1
0,064	13,5	12,8
0,0645	8,2	12,5
0,065	3,3	12,4
0,0655	-0,6	12,3
0,066	-3,3	12,2
0,0665	-5,0	12,0
0,067	-5,8	11,7
0,0675	-5,9	11,2
0,068	-5,4	10,4
0,0685	-3,9	9,6
0,069	-1,3	8,8
0,0695	2,6	8,4
0,07	7,7	8,4
0,0705	13,2	8,5
0,071	18,3	8,7
0,0715	22,6	8,8
0,072	25,9	8,7
0,0725	27,7	8,4
0,073	27,6	7,9
0,0735	25,9	7,5
0,074	23,0	7,4
0,0745	19,7	7,7
0,075	16,4	8,4
0,0755	13,2	9,3
0,076	10,1	10,3
0,0765	7,1	11,6
0,077	4,6	13,0
0,0775	2,6	14,4
0,078	0,9	15,7
0,0785	-0,9	16,5
0,079	-2,5	16,7
0,0795	-3,7	16,5
0,08	-4,4	16,4
0,0805	-4,7	16,4
0,081	-5,1	16,3
0,0815	-6,1	15,5
0,082	-7,7	14,2
0,0825	-9,8	12,6
0,083	-11,8	11,2
0,0835	-13,0	9,9
0,084	-13,3	8,9
0,0845	-13,1	8,1
0,085	-13,0	7,6
0,0855	-12,8	7,2
0,086	-12,0	7,0
0,0865	-10,7	7,1
0,087	-9,5	7,6
0,0875	-8,7	8,3
0,088	-7,8	9,2
0,0885	-6,3	10,0
0,089	-4,2	10,6
0,0895	-2,1	10,5
0,09	-0,4	9,8
0,0905	0,7	8,8
0,091	1,1	8,0
0,0915	1,4	7,5
0,092	2,9	7,5
0,0925	6,4	7,8
0,093	11,5	8,4
0,0935	17,1	9,2
0,094	22,0	9,9
0,0945	25,4	10,2
0,095	26,5	9,9
0,0955	25,3	9,3
0,096	22,3	8,8
0,0965	17,9	8,8
0,097	11,9	9,5
0,0975	4,7	10,6
0,098	-2,7	11,5
0,0985	-9,4	11,9
0,099	-14,8	11,6
0,0995	-18,5	10,8
0,1	-20,8	9,8
0,1005	-21,8	8,9
0,101	-22,2	8,5
0,1015	-22,2	8,5
0,102	-21,7	9,0
0,1025	-20,4	9,7
0,103	-17,5	10,3
0,1035	-13,1	10,9
0,104	-8,3	11,5
0,1045	-4,5	11,9
0,105	-2,5	12,2
0,1055	-2,0	11,9
0,106	-1,7	11,3
0,1065	-0,5	10,3
0,107	2,2	9,3
0,1075	6,5	8,6
0,108	12,2	8,4
0,1085	18,8	8,5
0,109	25,6	8,8
0,1095	31,9	9,0
0,11	37,1	9,2
0,1105	40,4	9,1
0,111	40,8	8,8
0,1115	37,8	8,2
0,112	31,5	7,5
0,1125	22,4	6,8
0,113	11,8	6,1
0,1135	1,4	5,7
0,114	-7,0	5,6
0,1145	-13,1	5,8
0,115	-17,4	6,2
0,1155	-20,7	6,3
0,116	-23,2	6,3
0,1165	-25,1	5,8
0,117	-26,3	4,9
0,1175	-27,0	3,8
0,118	-26,3	3,0
0,1185	-22,4	2,5
0,119	-13,8	2,3
0,1195	-1,3	2,3
0,12	11,9	2,7
0,1205	22,1	3,7
0,121	27,4	5,2
0,1215	28,7	6,7
0,122	27,3	7,8
0,1225	24,4	8,3
0,123	19,5	8,2
0,1235	12,8	7,8
0,124	5,2	7,4
0,1245	-2,0	7,3
0,125	-7,7	7,7
0,1255	-11,3	8,4
0,126	-12,8	9,2
0,1265	-13,1	9,3
0,127	-13,1	8,8
0,1275	-13,7	7,5
0,128	-14,8	6,0
0,1285	-16,1	4,7
0,129	-16,9	3,8
0,1295	-16,8	3,6
0,13	-15,4	4,1
0,1305	-13,0	5,2
0,131	-10,1	6,4
0,1315	-7,0	7,3
0,132	-3,9	7,7
0,1325	-0,2	7,6
0,133	5,0	7,2
0,1335	12,4	6,4
0,134	21,3	5,3
0,1345	30,0	4,1
0,135	36,9	2,8
0,1355	41,0	1,9
0,136	41,6	1,6
0,1365	38,6	1,9
0,137	32,6	2,6
0,1375	24,4	3,5
0,138	15,2	4,3
0,1385	5,4	4,9
0,139	-4,5	5,1
0,1395	-14,3	5,0
0,14	-23,2	4,7
0,1405	-30,6	4,5
0,141	-36,6	4,5
0,1415	-40,8	4,7
0,142	-42,8	4,7
0,1425	-42,0	4,3
0,143	-38,6	3,5
0,1435	-33,5	2,4
0,144	-27,3	1,2
0,1445	-21,0	0,3
0,145	-14,8	-0,1
0,1455	-9,2	-0,1
0,146	-4,8	0,3
0,1465	-1,8	0,8
0,147	-0,5	1,7
0,1475	-0,4	2,7
0,148	-0,7	3,4
0,1485	-0,5	3,7
0,149	0,3	3,8
0,1495	1,3	3,9
0,15	2,0	4,4
0,1505	2,4	5,1
0,151	2,4	6,0
0,1515	1,8	6,7
0,152	0,5	7,0
0,1525	-0,7	7,0
0,153	-1,0	6,8
0,1535	0,3	7,0
0,154	2,6	7,6
0,1545	5,3	8,5
0,155	7,9	9,3
0,1555	9,8	9,6
0,156	10,2	9,4
0,1565	8,9	9,0
0,157	6,0	8,6
0,1575	2,0	8,2
0,158	-2,3	7,6
0,1585	-6,6	6,6
0,159	-10,3	5,6
0,1595	-12,9	5,0
0,16	-14,6	4,6
0,1605	-15,3	4,4
0,161	-15,0	4,1
0,1615	-13,7	3,6
0,162	-10,9	2,9
0,1625	-6,5	2,2
0,163	-0,2	1,6
0,1635	7,5	1,3
0,164	15,3	1,6
0,1645	21,8	2,0
0,165	26,5	2,5
0,1655	30,8	2,8
0,166	37,0	2,9
0,1665	45,0	2,9
0,167	52,1	3,1
0,1675	55,2	3,4
0,168	53,4	3,8
0,1685	47,4	4,0
0,169	38,3	3,9
0,1695	27,0	3,8
0,17	14,4	3,7
0,1705	1,1	3,9
0,171	-13,1	4,3
0,1715	-28,1	4,5
0,172	-42,7	4,3
0,1725	-55,3	3,8
0,173	-64,2	3,4
0,1735	-68,5	3,1
0,174	-67,4	3,0
0,1745	-60,9	3,0
0,175	-49,9	3,3
0,1755	-36,2	4,1
0,176	-21,7	5,2
0,1765	-8,0	6,6
0,177	3,9	7,9
0,1775	13,0	8,8
0,178	18,8	9,3
0,1785	21,8	9,3
0,179	23,7	8,8
0,1795	25,5	8,4
0,18	27,0	8,2
0,1805	26,8	8,3
0,181	24,4	8,5
0,1815	20,0	8,8
0,182	14,8	8,8
0,1825	10,5	8,6
0,183	8,2	8,1
0,1835	8,2	7,3
0,184	9,2	6,6
0,1845	9,5	5,9
0,185	8,2	5,2
0,1855	6,4	4,2
0,186	5,2	3,1
0,1865	5,0	2,0
0,187	4,8	1,3
0,1875	3,9	1,3
0,188	2,4	2,0
0,1885	1,6	3,2
0,189	2,5	4,1
0,1895	5,3	4,4
0,19	8,8	4,2
0,1905	12,1	3,6
0,191	14,7	3,1
0,1915	16,6	2,8
0,192	18,3	2,7
0,1925	19,8	2,8
0,193	20,7	3,3
0,1935	20,6	3,8
0,194	19,2	4,2
0,1945	16,2	4,3
0,195	11,8	4,1
0,1955	6,8	3,6
0,196	2,0	3,0
0,1965	-1,8	2,4
0,197	-4,8	2,1
0,1975	-6,8	2,3
0,198	-8,1	2,7
0,1985	-8,5	3,3
0,199	-7,6	3,5
0,1995	-5,3	3,2
0,2	-2,0	2,5
0,2005	1,6	1,6
0,201	5,2	0,6
0,2015	8,8	-0,3
0,202	13,0	-0,8
0,2025	18,1	-1,1
0,203	24,6	-1,3
0,2035	33,1	-1,3
0,204	43,1	-1,3
0,2045	53,7	-1,4
0,205	64,0	-1,9
0,2055	73,5	-2,6
0,206	81,3	-2,8
0,2065	86,4	-2,3
0,207	88,5	-1,0
0,2075	87,0	0,8
0,208	80,8	2,9
0,2085	68,8	4,9
0,209	51,2	6,7
0,2095	29,5	7,9
0,21	5,9	8,3
0,2105	-17,8	8,1
0,211	-40,2	7,4
0,2115	-60,2	6,1
0,212	-76,4	4,4
0,2125	-87,3	2,7
0,213	-92,9	1,5
0,2135	-93,4	1,3
0,214	-89,3	1,9
0,2145	-81,3	2,9
0,215	-70,5	3,7
0,2155	-57,9	4,0
0,216	-44,1	3,8
0,2165	-29,1	3,1
0,217	-14,2	2,1
0,2175	-1,0	1,3
0,218	9,2	0,8
0,2185	16,0	1,0
0,219	19,4	1,8
0,2195	19,6	2,8
0,22	16,4	3,6
0,2205	10,6	4,5
0,221	3,8	5,3
0,2215	-2,1	6,0
0,222	-5,8	6,2
0,2225	-7,7	5,6
0,223	-8,1	4,4
0,2235	-6,9	3,2
0,224	-4,0	2,4
0,2245	0,4	2,1
0,225	5,0	2,3
0,2255	8,8	3,0
0,226	11,3	3,9
0,2265	12,3	4,7
0,227	12,5	5,0
0,2275	12,5	4,9
0,228	12,7	4,3
0,2285	12,9	3,5
0,229	13,2	2,5
0,2295	13,4	1,7
0,23	13,1	1,3
0,2305	11,4	1,5
0,231	8,3	2,3
0,2315	4,0	3,5
0,232	-0,7	4,9
0,2325	-4,8	5,8
0,233	-8,0	5,8
0,2335	-10,3	4,6
0,234	-12,2	2,6
0,2345	-13,8	0,5
0,235	-15,2	-0,9
0,2355	-16,2	-1,1
0,236	-17,1	-0,2
0,2365	-17,9	1,3
0,237	-18,7	2,8
0,2375	-19,3	4,0
0,238	-20,1	5,0
0,2385	-21,2	5,7
0,239	-22,6	6,0
0,2395	-24,0	5,9
0,24	-24,9	5,3
0,2405	-24,7	4,6
0,241	-23,0	3,8
0,2415	-20,1	3,5
0,242	-16,5	3,3
0,2425	-12,9	2,8
0,243	-10,2	2,0
0,2435	-8,7	0,8
0,244	-8,3	-0,7
0,2445	-8,4	-1,9
0,245	-7,8	-2,8
0,2455	-4,7	-3,2
0,246	1,5	-3,4
0,2465	9,4	-3,7
0,247	16,6	-3,9
0,2475	21,5	-3,8
0,248	24,0	-3,3
0,2485	25,1	-2,0
0,249	25,5	-0,4
0,2495	25,3	1,1
0,25	24,0	2,3
0,2505	21,8	3,0
0,251	18,8	3,1
0,2515	15,8	2,8
0,252	12,3	2,4
0,2525	8,1	1,9
0,253	2,8	1,6
0,2535	-2,6	1,5
0,254	-7,4	1,6
0,2545	-11,4	1,9
0,255	-14,6	2,1
0,2555	-16,6	1,8
0,256	-17,3	1,3
0,2565	-16,3	0,8
0,257	-14,4	0,7
0,2575	-12,2	0,9
0,258	-10,1	1,3
0,2585	-8,1	1,6
0,259	-6,3	2,0
0,2595	-4,5	2,6
0,26	-3,2	3,3
0,2605	-2,6	3,8
0,261	-2,5	4,1
0,2615	-2,9	4,0
0,262	-3,5	3,7
0,2625	-4,2	3,4
0,263	-5,0	3,1
0,2635	-6,0	3,0
0,264	-7,3	3,1
0,2645	-8,6	3,5
0,265	-9,3	4,1
0,2655	-9,2	4,8
0,266	-7,6	5,1
0,2665	-4,5	5,2
0,267	-0,5	4,8
0,2675	3,6	4,3
0,268	7,0	3,5
0,2685	9,2	2,8
0,269	10,4	2,4
0,2695	11,2	2,4
0,27	12,3	2,7
0,2705	13,9	3,2
0,271	16,0	3,6
0,2715	18,6	3,9
0,272	21,7	3,9
0,2725	24,9	3,8
0,273	27,7	3,5
0,2735	29,1	3,4
0,274	28,4	3,4
0,2745	25,8	3,5
0,275	23,2	3,8
0,2755	24,1	4,4
0,276	31,1	5,3
0,2765	43,7	6,3
0,277	58,6	7,2
0,2775	71,9	7,8
0,278	81,1	8,0
0,2785	84,3	7,8
0,279	80,9	7,5
0,2795	71,0	7,3
0,28	56,5	7,4
0,2805	40,3	7,7
0,281	24,4	7,8
0,2815	9,3	7,8
0,282	-6,1	7,2
0,2825	-22,3	5,8
0,283	-38,8	3,8
0,2835	-54,0	1,7
0,284	-65,8	0,0
0,2845	-73,2	-1,0
0,285	-76,2	-1,2
0,2855	-76,4	-0,9
0,286	-75,3	-0,3
0,2865	-73,9	0,3
0,287	-72,2	0,8
0,2875	-69,5	1,2
0,288	-64,3	1,6
0,2885	-55,6	2,2
0,289	-43,6	3,0
0,2895	-30,5	3,6
0,29	-18,9	3,6
0,2905	-11,0	3,1
0,291	-7,2	2,6
0,2915	-6,2	2,5
0,292	-6,3	3,1
0,2925	-6,2	4,1
0,293	-5,6	5,1
0,2935	-3,4	5,8
0,294	1,3	5,9
0,2945	8,4	5,6
0,295	16,5	5,1
0,2955	23,5	4,6
0,296	28,5	4,2
0,2965	31,0	3,8
0,297	30,5	3,9
0,2975	27,2	4,4
0,298	21,7	5,3
0,2985	15,3	6,1
0,299	9,0	6,6
0,2995	3,7	6,5
0,3	-0,2	5,6
0,3005	-2,2	4,3
0,301	-2,4	2,8
0,3015	-1,3	1,6
0,302	-0,1	0,6
0,3025	0,3	-0,0
0,303	-0,5	-0,4
0,3035	-2,7	-0,6
0,304	-6,1	-0,4
0,3045	-10,1	0,1
0,305	-13,2	0,5
0,3055	-14,4	0,8
0,306	-13,6	1,0
0,3065	-11,3	1,3
0,307	-8,3	1,8
0,3075	-5,2	2,8
0,308	-2,6	4,6
0,3085	-1,9	6,8
0,309	-4,0	9,0
0,3095	-8,4	10,5
0,31	-12,8	11,2
0,3105	-14,5	10,7
0,311	-11,6	9,2
0,3115	-5,0	7,3
0,312	2,6	5,8
0,3125	8,5	5,0
0,313	11,6	4,9
0,3135	12,1	5,3
0,314	10,8	5,6
0,3145	8,7	5,8
0,315	6,7	5,8
0,3155	5,6	5,6
0,316	5,2	5,1
0,3165	4,5	4,2
0,317	2,3	2,9
0,3175	-1,6	1,3
0,318	-5,7	-0,1
0,3185	-8,4	-1,0
0,319	-9,4	-1,1
0,3195	-9,2	-0,3
0,32	-8,3	1,1
0,3205	-6,8	2,7
0,321	-5,1	4,2
0,3215	-3,5	5,2
0,322	-2,3	5,8
0,3225	-0,9	6,1
0,323	0,6	6,3
0,3235	2,3	6,3
0,324	4,0	6,3
0,3245	5,3	6,2
0,325	5,8	6,0
0,3255	5,8	5,7
0,326	5,3	5,3
0,3265	5,0	4,7
0,327	5,1	4,3
0,3275	5,8	4,3
0,328	6,8	4,3
0,3285	7,8	4,3
0,329	8,8	4,2
0,3295	10,0	4,0
0,33	12,0	3,8
0,3305	15,3	4,1
0,331	19,8	4,7
0,3315	24,8	5,6
0,332	29,1	6,3
0,3325	32,1	6,6
0,333	34,0	6,0
0,3335	34,9	4,8
0,334	35,1	3,3
0,3345	33,9	2,1
0,335	31,0	1,4
0,3355	26,0	1,2
0,336	19,3	1,2
0,3365	11,5	1,4
0,337	3,4	2,0
0,3375	-4,3	2,9
0,338	-11,4	4,1
0,3385	-17,4	5,2
0,339	-22,1	6,0
0,3395	-25,5	6,4
0,34	-27,7	6,7
0,3405	-28,6	7,2
0,341	-27,8	8,1
0,3415	-25,4	9,2
0,342	-22,2	10,0
0,3425	-19,4	10,2
0,343	-17,4	9,8
0,3435	-15,3	9,0
0,344	-12,1	8,3
0,3445	-7,9	7,7
0,345	-3,9	7,3
0,3455	-1,7	6,9
0,346	-1,4	6,5
0,3465	-1,9	6,0
0,347	-2,3	5,7
0,3475	-2,3	5,6
0,348	-1,9	5,7
0,3485	-1,3	5,8
0,349	0,6	5,8
0,3495	4,8	5,6
0,35	11,6	5,1
0,3505	20,1	4,5
0,351	28,6	3,9
0,3515	35,8	3,4
0,352	41,2	3,0
0,3525	44,3	2,8
0,353	45,3	3,0
0,3535	43,9	3,7
0,354	40,3	4,9
0,3545	34,9	6,3
0,355	28,4	7,8
0,3555	21,3	8,5
0,356	14,0	8,1
0,3565	6,0	6,6
0,357	-2,8	4,7
0,3575	-12,3	3,1
0,358	-21,6	2,4
0,3585	-29,8	2,7
0,359	-36,3	3,6
0,3595	-40,5	4,3
0,36	-42,1	4,5
0,3605	-40,4	4,1
0,361	-35,9	3,3
0,3615	-29,8	2,4
0,362	-23,5	1,6
0,3625	-18,4	1,1
0,363	-14,8	1,0
0,3635	-12,5	1,4
0,364	-11,3	2,2
0,3645	-10,9	3,3
0,365	-11,5	4,2
0,3655	-13,0	4,8
0,366	-15,3	4,9
0,3665	-18,1	4,9
0,367	-21,1	5,0
0,3675	-23,9	5,1
0,368	-25,6	4,8
0,3685	-25,4	4,0
0,369	-22,4	3,1
0,3695	-16,9	2,4
0,37	-9,8	2,2
0,3705	-2,8	2,2
0,371	3,3	2,3
0,3715	9,3	2,5
0,372	16,2	2,4
0,3725	24,6	2,0
0,373	33,5	1,5
0,3735	42,6	1,0
0,374	53,0	0,9
0,3745	65,6	1,3
0,375	79,0	2,1
0,3755	90,0	3,0
0,376	95,8	3,8
0,3765	95,6	4,0
0,377	89,6	3,8
0,3775	78,9	3,6
0,378	64,7	3,8
0,3785	47,8	4,4
0,379	29,0	5,3
0,3795	9,5	6,4
0,38	-9,6	7,6
0,3805	-27,2	8,8
0,381	-42,1	9,7
0,3815	-53,3	10,1
0,382	-60,2	10,1
0,3825	-62,2	9,8
0,383	-58,5	9,1
0,3835	-49,8	8,2
0,384	-38,5	7,0
0,3845	-27,7	6,0
0,385	-19,0	5,3
0,3855	-12,3	5,3
0,386	-6,7	5,7
0,3865	-2,0	6,5
0,387	1,5	7,4
0,3875	4,0	8,3
0,388	5,7	8,7
0,3885	7,0	8,6
0,389	7,6	8,0
0,3895	7,5	7,4
0,39	6,7	6,8
0,3905	5,1	6,4
0,391	3,3	6,2
0,3915	1,3	6,2
0,392	-0,6	6,6
0,3925	-2,1	7,2
0,393	-3,2	7,9
0,3935	-4,2	8,5
0,394	-5,1	8,7
0,3945	-5,8	8,5
0,395	-6,0	7,9
0,3955	-5,3	7,1
0,396	-3,5	6,3
0,3965	-1,2	5,7
0,397	0,9	5,5
0,3975	2,1	5,6
0,398	2,2	5,9
0,3985	1,9	6,0
0,399	1,9	6,0
0,3995	2,2	5,9
0,4	2,5	5,9
0,4005	2,8	6,1
0,401	3,4	6,4
0,4015	4,8	6,8
0,402	6,8	7,3
0,4025	9,3	7,8
0,403	11,7	8,5
0,4035	13,6	9,3
0,404	15,0	10,2
0,4045	15,8	11,2
0,405	15,8	11,8
0,4055	14,7	12,0
0,406	13,7	11,8
0,4065	14,3	11,4
0,407	17,3	10,8
0,4075	22,4	10,2
0,408	28,1	10,0
0,4085	32,6	10,4
0,409	34,9	11,2
0,4095	34,7	11,7
0,41	32,0	11,6
0,4105	27,6	10,9
0,411	22,9	9,9
0,4115	19,5	9,0
0,412	17,4	8,4
0,4125	15,7	8,0
0,413	13,8	8,0
0,4135	12,1	8,3
0,414	11,7	9,0
0,4145	12,5	10,1
0,415	13,6	11,3
0,4155	13,8	12,4
0,416	13,3	13,0
0,4165	13,3	12,9
0,417	14,5	12,2
0,4175	16,6	11,3
0,418	18,5	10,3
0,4185	18,9	9,3
0,419	18,0	8,4
0,4195	16,9	8,0
0,42	16,3	8,1
0,4205	15,8	8,7
0,421	14,8	9,4
0,4215	13,4	10,2
0,422	11,9	10,6
0,4225	11,0	10,6
0,423	10,1	10,2
0,4235	8,6	9,6
0,424	6,7	9,2
0,4245	5,5	9,0
0,425	6,7	9,2
0,4255	10,5	9,4
0,426	15,8	9,6
0,4265	20,9	9,7
0,427	25,0	9,8
0,4275	28,2	9,9
0,428	30,8	10,1
0,4285	32,8	10,2
0,429	34,2	9,9
0,4295	34,3	9,3
0,43	32,8	8,7
0,4305	29,5	8,3
0,431	24,8	8,2
0,4315	18,8	8,3
0,432	12,4	8,3
0,4325	5,9	8,3
0,433	-0,3	8,4
0,4335	-6,3	8,9
0,434	-12,0	9,6
0,4345	-18,3	10,0
0,435	-25,4	9,7
0,4355	-33,4	8,7
0,436	-41,1	7,6
0,4365	-47,4	7,1
0,437	-51,3	7,5
0,4375	-52,4	8,6
0,438	-50,1	10,2
0,4385	-44,4	11,6
0,439	-36,2	12,4
0,4395	-27,0	12,6
0,44	-17,8	12,3
0,4405	-9,2	11,7
0,441	-1,5	11,0
0,4415	5,0	10,4
0,442	10,1	9,9
0,4425	13,7	9,7
0,443	15,5	9,6
0,4435	15,5	9,7
0,444	14,7	9,7
0,4445	14,2	9,5
0,445	14,8	9,4
0,4455	16,5	9,1
0,446	18,8	8,7
0,4465	21,0	8,0
0,447	23,2	7,4
0,4475	25,2	7,1
0,448	26,9	6,9
0,4485	27,9	6,8
0,449	27,5	6,9
0,4495	25,7	7,5
0,45	23,3	8,5
0,4505	20,9	9,6
0,451	18,8	10,4
0,4515	16,3	10,7
0,452	13,4	10,6
0,4525	10,8	10,5
0,453	9,5	10,8
0,4535	9,3	11,2
0,454	8,9	11,4
0,4545	7,3	11,3
0,455	4,1	10,6
0,4555	0,0	9,6
0,456	-4,0	8,4
0,4565	-7,4	7,6
0,457	-10,0	7,4
0,4575	-12,0	7,8
0,458	-13,3	8,3
0,4585	-13,9	8,5
0,459	-13,6	8,4
0,4595	-12,0	8,1
0,46	-8,4	7,8
0,4605	-3,2	7,4
0,461	2,6	6,9
0,4615	7,5	6,5
0,462	10,7	5,9
0,4625	12,0	5,2
0,463	11,6	4,8
0,4635	9,6	5,2
0,464	6,1	6,5
0,4645	1,2	8,4
0,465	-4,9	10,3
0,4655	-11,7	11,5
0,466	-18,3	11,9
0,4665	-24,1	11,7
0,467	-28,4	10,9
0,4675	-31,2	9,9
0,468	-32,9	8,9
0,4685	-33,3	8,2
0,469	-32,0	7,8
0,4695	-28,7	7,8
0,47	-23,0	8,3
0,4705	-15,3	8,9
0,471	-6,5	9,6
0,4715	2,2	10,0
0,472	9,6	9,8
0,4725	15,3	9,2
0,473	20,8	8,6
0,4735	27,8	8,2
0,474	36,7	8,3
0,4745	46,2	8,8
0,475	54,1	9,5
0,4755	59,2	10,1
0,476	61,2	10,6
0,4765	59,8	10,9
0,477	55,3	10,9
0,4775	47,7	10,8
0,478	36,9	10,6
0,4785	23,1	10,4
0,479	7,8	10,6
0,4795	-7,2	10,8
0,48	-20,5	11,1
0,4805	-31,4	11,2
0,481	-39,3	11,0
0,4815	-44,2	10,8
0,482	-46,3	10,8
0,4825	-46,3	10,8
0,483	-44,6	10,8
0,4835	-41,9	10,4
0,484	-39,1	9,7
0,4845	-37,0	8,6
0,485	-35,7	7,1
0,4855	-35,1	5,3
0,486	-34,5	4,0
0,4865	-33,5	3,4
0,487	-31,5	3,7
0,4875	-28,0	4,8
0,488	-23,1	6,3
0,4885	-17,3	7,8
0,489	-11,2	8,8
0,4895	-5,6	9,0
0,49	-1,1	8,5
0,4905	2,1	7,7
0,491	4,3	6,8
0,4915	5,5	6,1
0,492	5,9	5,7
0,4925	5,8	5,3
0,493	6,1	4,8
0,4935	8,4	4,6
0,494	13,2	4,5
0,4945	19,4	4,6
0,495	25,4	4,5
0,4955	30,0	4,3
0,496	32,8	3,9
0,4965	33,9	3,8
0,497	33,4	4,0
0,4975	30,9	4,5
0,498	25,9	4,8
0,4985	18,3	4,8
0,499	9,0	4,3
0,4995	-1,0	4,0
0,5	-9,0	4,0
0,5005	-11,4	4,6
0,501	-6,1	5,6
0,5015	5,3	6,7
0,502	18,3	8,0
0,5025	29,0	9,3
0,503	35,3	10,5
0,5035	36,3	11,3
0,504	32,3	11,4
0,5045	24,3	10,9
0,505	13,5	10,2
0,5055	1,1	9,4
0,506	-12,0	8,9
0,5065	-25,3	8,6
0,507	-37,7	8,6
0,5075	-49,0	8,7
0,508	-59,2	8,6
0,5085	-67,9	8,4
0,509	-74,3	8,3
0,5095	-77,1	8,3
0,51	-76,4	8,7
0,5105	-73,0	9,1
0,511	-68,6	9,2
0,5115	-63,7	8,8
0,512	-57,5	7,7
0,5125	-49,0	6,3
0,513	-38,5	5,0
0,5135	-27,6	4,2
0,514	-17,8	4,0
0,5145	-10,0	4,4
0,515	-4,4	4,8
0,5155	-1,3	4,8
0,516	-0,4	4,4
0,5165	-0,6	3,8
0,517	-0,4	3,3
0,5175	0,8	3,1
0,518	2,7	3,5
0,5185	4,0	4,2
0,519	4,1	5,0
0,5195	2,6	5,8
0,52	-0,3	6,7
0,5205	-3,7	7,7
0,521	-7,0	8,7
0,5215	-10,0	9,3
0,522	-12,0	9,3
0,5225	-12,4	8,6
0,523	-11,3	7,3
0,5235	-9,0	5,9
0,524	-6,0	4,9
0,5245	-2,5	4,2
0,525	1,1	3,8
0,5255	4,1	3,9
0,526	5,9	4,0
0,5265	7,0	4,0
0,527	7,8	3,7
0,5275	8,6	3,0
0,528	8,9	2,6
0,5285	8,5	2,5
0,529	7,4	2,8
0,5295	6,1	3,4
0,53	4,9	4,0
0,5305	4,0	4,7
0,531	3,3	5,4
0,5315	3,0	5,9
0,532	3,9	6,2
0,5325	6,5	6,5
0,533	11,3	6,7
0,5335	17,8	6,7
0,534	24,4	6,3
0,5345	29,8	5,2
0,535	32,9	4,1
0,5355	33,5	3,3
0,536	31,9	3,0
0,5365	28,2	3,2
0,537	22,3	3,8
0,5375	14,3	4,4
0,538	4,9	4,9
0,5385	-4,8	4,8
0,539	-13,2	4,1
0,5395	-19,0	3,2
0,54	-21,9	2,6
0,5405	-22,1	2,8
0,541	-20,4	3,5
0,5415	-17,8	4,9
0,542	-14,5	6,7
0,5425	-10,6	8,5
0,543	-6,3	9,9
0,5435	-1,7	10,6
0,544	2,9	10,7
0,5445	7,1	10,1
0,545	9,8	9,1
0,5455	10,8	7,7
0,546	10,2	6,2
0,5465	8,6	5,0
0,547	6,0	4,4
0,5475	2,7	4,6
0,548	-0,5	5,3
0,5485	-2,0	6,1
0,549	-1,0	6,5
0,5495	2,5	6,4
0,55	7,3	5,9
0,5505	11,8	5,1
0,551	14,0	4,0
0,5515	13,2	2,8
0,552	9,9	2,2
0,5525	5,0	2,3
0,553	-1,0	2,9
0,5535	-8,0	3,8
0,554	-15,8	4,8
0,5545	-23,6	5,9
0,555	-30,8	7,1
0,5555	-36,7	8,0
0,556	-40,7	8,7
0,5565	-42,7	9,0
0,557	-42,9	9,3
0,5575	-41,0	9,5
0,558	-37,3	9,9
0,5585	-31,9	10,3
0,559	-25,8	10,8
0,5595	-19,8	11,3
0,56	-14,6	11,9
0,5605	-10,1	12,3
0,561	-6,5	12,1
0,5615	-3,8	11,4
0,562	-1,8	10,3
0,5625	-0,5	9,0
0,563	-0,3	7,8
0,5635	-1,6	6,8
0,564	-4,5	6,2
0,5645	-8,2	6,1
0,565	-11,5	6,4
0,5655	-13,5	6,7
0,566	-13,6	6,8
0,5665	-11,6	6,7
0,567	-8,2	6,5
0,5675	-4,1	6,1
0,568	0,3	5,7
0,5685	4,9	5,0
0,569	9,2	4,4
0,5695	12,5	3,8
0,57	14,7	3,5
0,5705	16,6	3,8
0,571	19,1	4,6
0,5715	22,8	5,6
0,572	27,3	6,6
0,5725	31,7	7,6
0,573	34,8	8,8
0,5735	35,0	10,0
0,574	31,8	10,9
0,5745	26,1	11,4
0,575	19,5	11,5
0,5755	13,1	11,6
0,576	7,0	12,0
0,5765	0,4	12,7
0,577	-6,3	13,2
0,5775	-12,5	13,2
0,578	-17,3	12,7
0,5785	-20,7	11,9
0,579	-22,9	11,0
0,5795	-24,3	10,0
0,58	-25,1	9,3
0,5805	-25,7	9,2
0,581	-26,0	9,9
0,5815	-25,8	11,3
0,582	-24,8	12,8
0,5825	-22,1	13,9
0,583	-17,6	14,3
0,5835	-12,1	14,0
0,584	-6,7	13,1
0,5845	-2,0	11,9
0,585	2,0	10,8
0,5855	5,1	10,1
0,586	7,0	10,0
0,5865	7,5	10,3
0,587	7,0	10,9
0,5875	5,8	11,4
0,588	4,3	11,7
0,5885	2,7	11,7
0,589	1,0	11,1
0,5895	-0,8	10,2
0,59	-2,4	9,4
0,5905	-3,3	9,1
0,591	-3,2	9,5
0,5915	-2,3	10,5
0,592	-1,3	11,9
0,5925	-0,7	13,2
0,593	-0,9	14,2
0,5935	-1,8	14,5
0,594	-2,7	14,1
0,5945	-3,2	13,3
0,595	-3,8	12,5
0,5955	-5,4	12,0
0,596	-8,0	11,6
0,5965	-10,8	11,1
0,597	-13,4	10,8
0,5975	-15,3	11,3
0,598	-16,8	12,7
0,5985	-17,9	14,3
0,599	-18,5	15,4
0,5995	-18,7	15,4
0,6	-18,4	14,4
0,6005	-18,0	12,8
0,601	-17,9	10,9
0,6015	-18,5	9,5
0,602	-19,4	9,0
0,6025	-20,2	9,5
0,603	-20,1	10,5
0,6035	-19,2	11,6
0,604	-17,7	12,6
0,6045	-16,1	13,4
0,605	-14,3	14,0
0,6055	-12,3	14,1
0,606	-10,1	13,8
0,6065	-8,1	13,3
0,607	-6,1	12,7
0,6075	-3,6	12,3
0,608	-0,5	12,2
0,6085	2,9	12,2
0,609	5,8	12,2
0,6095	7,6	12,3
0,61	8,3	12,5
0,6105	8,3	12,9
0,611	8,0	13,1
0,6115	7,9	13,3
0,612	7,2	13,3
0,6125	5,4	13,3
0,613	2,2	13,1
0,6135	-2,0	12,9
0,614	-5,8	12,9
0,6145	-7,8	12,9
0,615	-7,8	12,8
0,6155	-6,2	12,5
0,616	-4,0	12,3
0,6165	-2,3	12,1
0,617	-1,6	11,7
0,6175	-1,9	11,1
0,618	-2,7	10,4
0,6185	-3,3	9,8
0,619	-3,2	9,6
0,6195	-1,9	9,6
0,62	1,1	9,4
0,6205	5,6	8,9
0,621	10,2	8,2
0,6215	13,6	7,6
0,622	15,3	7,3
0,6225	15,4	7,0
0,623	14,5	6,8
0,6235	13,5	6,9
0,624	13,3	7,5
0,6245	14,1	8,5
0,625	15,6	9,8
0,6255	16,8	11,4
0,626	16,6	13,2
0,6265	14,6	15,0
0,627	11,1	16,4
0,6275	6,8	17,5
0,628	3,1	18,3
0,6285	1,3	18,7
0,629	1,8	18,2
0,6295	3,0	16,8
0,63	2,9	14,8
0,6305	0,3	13,2
0,631	-4,3	12,7
0,6315	-9,4	13,5
0,632	-13,9	14,9
0,6325	-18,0	16,2
0,633	-22,1	16,9
0,6335	-26,3	17,1
0,634	-30,6	17,0
0,6345	-34,7	16,9
0,635	-38,0	16,8
0,6355	-40,1	16,8
0,636	-40,4	16,9
0,6365	-38,9	17,3
0,637	-35,8	18,0
0,6375	-31,3	18,9
0,638	-25,6	19,9
0,6385	-19,3	20,7
0,639	-13,3	21,0
0,6395	-8,0	20,5
0,64	-3,2	19,3
0,6405	2,0	17,9
0,641	8,2	16,6
0,6415	15,2	15,4
0,642	22,1	14,4
0,6425	28,1	13,8
0,643	32,5	13,9
0,6435	35,3	14,6
0,644	36,3	15,6
0,6445	35,7	16,8
0,645	33,7	17,8
0,6455	30,6	18,2
0,646	27,1	17,7
0,6465	23,8	16,4
0,647	20,9	14,7
0,6475	18,7	13,5
0,648	17,2	13,3
0,6485	16,6	13,9
0,649	16,3	14,9
0,6495	15,6	15,8
0,65	14,0	16,4
0,6505	11,5	16,4
0,651	8,2	15,9
0,6515	4,5	15,1
0,652	0,8	14,2
0,6525	-2,6	13,4
0,653	-5,6	12,9
0,6535	-7,9	12,7
0,654	-9,6	12,7
0,6545	-10,4	12,8
0,655	-10,7	12,5
0,6555	-10,6	11,6
0,656	-10,5	10,0
0,6565	-10,6	8,2
0,657	-11,1	6,8
0,6575	-12,1	6,1
0,658	-13,5	6,1
0,6585	-15,4	6,6
0,659	-17,7	7,2
0,6595	-20,0	8,0
0,66	-21,8	9,0
0,6605	-22,0	10,0
0,661	-20,2	10,8
0,6615	-16,6	11,1
0,662	-12,1	11,1
0,6625	-7,1	11,1
0,663	-2,0	11,2
0,6635	2,8	11,4
0,664	6,9	11,8
0,6645	10,4	12,5
0,665	13,6	13,5
0,6655	16,6	14,6
0,666	19,1	15,1
0,6665	20,8	14,9
0,667	22,0	14,1
0,6675	22,5	12,9
0,668	22,1	11,8
0,6685	20,7	10,5
0,669	18,3	9,5
0,6695	15,3	9,2
0,67	11,9	10,2
0,6705	8,2	12,7
0,671	4,6	15,9
0,6715	1,8	18,4
0,672	-0,1	19,1
0,6725	-1,2	17,8
0,673	-2,1	15,4
0,6735	-3,0	12,9
0,674	-3,9	11,0
0,6745	-4,8	9,8
0,675	-5,5	9,3
0,6755	-6,2	9,4
0,676	-6,8	10,1
0,6765	-7,3	11,0
0,677	-8,0	12,0
0,6775	-8,5	12,7
0,678	-7,3	13,2
0,6785	-3,7	13,5
0,679	1,8	13,6
0,6795	7,9	13,4
0,68	12,8	13,1
0,6805	15,7	13,0
0,681	16,1	13,1
0,6815	14,2	13,5
0,682	10,7	14,0
0,6825	5,7	14,6
0,683	-0,2	14,9
0,6835	-6,3	14,8
0,684	-11,7	14,4
0,6845	-16,0	14,3
0,685	-19,4	14,4
0,6855	-21,8	14,7
0,686	-23,1	14,9
0,6865	-22,8	14,9
0,687	-21,0	14,8
0,6875	-17,9	14,6
0,688	-13,8	14,3
0,6885	-8,4	14,0
0,689	-1,9	13,6
0,6895	5,2	13,1
0,69	11,5	12,6
0,6905	16,0	12,1
0,691	18,1	11,5
0,6915	18,1	11,1
0,692	16,7	11,0
0,6925	14,6	11,3
0,693	12,3	12,0
0,6935	9,8	12,9
0,694	7,3	13,8
0,6945	4,9	14,8
0,695	2,9	15,5
0,6955	1,4	16,0
0,696	0,3	16,0
0,6965	-0,5	15,4
0,697	-1,2	14,6
0,6975	-1,1	13,8
0,698	0,2	13,2
0,6985	2,2	12,8
0,699	4,3	12,6
0,6995	5,9	12,4
0,7	7,3	12,0
0,7005	8,6	11,3
0,701	9,6	10,5
0,7015	10,0	10,1
0,702	9,6	10,1
0,7025	8,4	10,5
0,703	6,0	11,2
0,7035	2,2	12,1
0,704	-3,1	13,3
0,7045	-9,2	14,8
0,705	-15,0	16,3
0,7055	-19,3	17,1
0,706	-21,8	16,9
0,7065	-22,7	16,0
0,707	-22,5	14,9
0,7075	-22,0	14,3
0,708	-21,8	14,3
0,7085	-22,3	15,0
0,709	-23,4	16,0
0,7095	-25,6	16,9
0,71	-28,8	17,5
0,7105	-31,7	17,9
0,711	-31,7	18,0
0,7115	-27,1	18,0
0,712	-17,9	17,5
0,7125	-5,9	16,8
0,713	6,9	16,0
0,7135	19,0	15,6
0,714	28,6	15,6
0,7145	34,4	16,0
0,715	36,1	16,2
0,7155	33,8	16,2
0,716	28,3	15,8
0,7165	21,0	15,5
0,717	13,1	15,2
0,7175	5,9	15,1
0,718	0,2	14,9
0,7185	-3,8	15,0
0,719	-6,7	15,6
0,7195	-9,5	16,7
0,72	-12,8	18,0
0,7205	-16,4	19,1
0,721	-19,6	19,8
0,7215	-21,4	20,2
0,722	-21,3	20,2
0,7225	-18,5	19,9
0,723	-12,5	19,2
0,7235	-3,3	18,2
0,724	8,2	17,2
0,7245	19,5	16,6
0,725	28,2	16,5
0,7255	32,5	17,1
0,726	32,6	18,2
0,7265	29,3	19,5
0,727	23,2	20,9
0,7275	15,2	21,9
0,728	5,9	22,2
0,7285	-3,9	21,6
0,729	-13,4	20,3
0,7295	-22,2	18,8
0,73	-29,7	17,3
0,7305	-35,5	16,3
0,731	-39,1	15,7
0,7315	-40,1	15,5
0,732	-38,6	15,6
0,7325	-35,6	16,0
0,733	-32,3	16,5
0,7335	-30,5	16,8
0,734	-31,1	16,7
0,7345	-33,1	16,3
0,735	-34,3	16,1
0,7355	-33,4	16,2
0,736	-30,7	16,7
0,7365	-27,3	17,1
0,737	-23,9	17,2
0,7375	-20,8	16,8
0,738	-18,0	16,3
0,7385	-16,1	16,0
0,739	-14,9	15,9
0,7395	-13,7	15,9
0,74	-12,1	15,8
0,7405	-10,2	15,6
0,741	-8,4	15,2
0,7415	-7,1	14,7
0,742	-6,3	14,3
0,7425	-5,7	14,1
0,743	-4,6	14,3
0,7435	-2,4	14,6
0,744	0,8	14,9
0,7445	4,7	15,2
0,745	8,5	15,1
0,7455	12,0	14,7
0,746	15,0	13,9
0,7465	17,7	12,8
0,747	20,0	11,9
0,7475	21,7	11,1
0,748	23,0	10,6
0,7485	24,1	10,1
0,749	25,3	9,8
0,7495	27,0	9,7
0,75	30,2	10,0
0,7505	35,3	10,4
0,751	41,4	10,9
0,7515	46,6	11,3
0,752	49,1	11,6
0,7525	48,8	12,1
0,753	46,1	12,5
0,7535	41,5	12,7
0,754	35,5	12,7
0,7545	28,2	12,6
0,755	19,6	12,5
0,7555	10,3	12,2
0,756	1,1	11,8
0,7565	-7,2	11,7
0,757	-14,4	12,2
0,7575	-20,7	13,0
0,758	-26,5	14,2
0,7585	-32,2	15,5
0,759	-37,3	16,8
0,7595	-41,4	18,0
0,76	-44,1	18,9
0,7605	-45,4	19,3
0,761	-45,3	18,9
0,7615	-43,7	17,7
0,762	-41,0	16,0
0,7625	-37,7	14,4
0,763	-33,9	13,3
0,7635	-29,0	12,8
0,764	-22,6	12,9
0,7645	-15,3	13,6
0,765	-8,3	14,3
0,7655	-2,2	14,8
0,766	2,9	14,8
0,7665	7,0	14,3
0,767	10,3	13,3
0,7675	12,5	12,1
0,768	13,7	10,9
0,7685	13,5	9,9
0,769	11,6	9,2
0,7695	7,8	8,9
0,77	2,1	8,9
0,7705	-4,4	9,0
0,771	-11,1	9,2
0,7715	-16,8	9,4
0,772	-20,4	9,6
0,7725	-21,4	9,6
0,773	-20,3	9,6
0,7735	-17,9	9,6
0,774	-15,4	9,6
0,7745	-13,2	9,5
0,775	-11,8	9,7
0,7755	-11,4	10,3
0,776	-11,4	11,3
0,7765	-11,2	12,7
0,777	-9,7	13,8
0,7775	-5,9	14,3
0,778	0,2	14,2
0,7785	7,8	13,6
0,779	15,7	12,8
0,7795	23,1	12,2
0,78	29,9	11,9
0,7805	35,7	11,9
0,781	39,9	12,4
0,7815	42,3	13,3
0,782	43,0	14,4
0,7825	42,2	15,5
0,783	39,6	16,2
0,7835	35,7	16,5
0,784	30,6	16,5
0,7845	23,6	16,5
0,785	14,3	16,7
0,7855	2,9	17,1
0,786	-9,3	17,7
0,7865	-21,0	17,9
0,787	-31,1	17,4
0,7875	-39,2	16,3
0,788	-45,1	14,8
0,7885	-48,6	13,5
0,789	-49,6	12,3
0,7895	-48,0	11,5
0,79	-44,0	10,8
0,7905	-38,3	10,2
0,791	-31,8	9,5
0,7915	-25,7	9,0
0,792	-21,0	8,9
0,7925	-18,3	9,1
0,793	-17,3	9,6
0,7935	-16,8	10,1
0,794	-15,3	10,7
0,7945	-12,3	11,0
0,795	-8,4	11,2
0,7955	-4,7	11,1
0,796	-1,9	10,9
0,7965	-0,7	10,5
0,797	-1,0	10,1
0,7975	-2,6	9,9
0,798	-4,5	9,9
0,7985	-5,9	10,0
0,799	-6,8	10,2
0,7995	-7,2	10,3
0,8	-7,2	10,3
0,8005	-7,0	10,2
0,801	-6,7	9,9
0,8015	-6,7	9,6
0,802	-6,7	9,4
0,8025	-6,3	9,4
0,803	-5,2	9,6
0,8035	-3,5	9,7
0,804	-2,0	9,7
0,8045	-1,3	9,5
0,805	-1,7	9,3
0,8055	-2,3	9,3
0,806	-2,2	9,7
0,8065	-0,9	10,2
0,807	1,3	10,7
0,8075	3,6	11,0
0,808	5,1	11,2
0,8085	5,3	11,2
0,809	4,9	11,2
0,8095	4,6	11,3
0,81	5,0	11,7
0,8105	6,1	12,1
0,811	8,0	12,5
0,8115	10,3	12,8
0,812	12,2	13,2
0,8125	12,7	13,3
0,813	11,0	12,9
0,8135	7,0	12,0
0,814	1,3	11,3
0,8145	-4,7	11,5
0,815	-9,6	12,8
0,8155	-12,6	14,7
0,816	-14,0	16,3
0,8165	-14,8	17,2
0,817	-15,3	17,3
0,8175	-15,9	16,6
0,818	-16,2	15,7
0,8185	-16,3	14,7
0,819	-16,9	14,0
0,8195	-17,8	13,6
0,82	-18,4	13,6
0,8205	-17,5	13,8
0,821	-14,6	14,0
0,8215	-10,5	14,0
0,822	-6,2	13,9
0,8225	-2,7	13,7
0,823	-0,5	13,6
0,8235	-0,2	13,6
0,824	-2,1	13,5
0,8245	-6,4	13,2
0,825	-13,1	12,6
0,8255	-21,5	12,0
0,826	-30,2	11,5
0,8265	-38,1	11,3
0,827	-44,4	11,3
0,8275	-48,2	11,5
0,828	-49,3	11,7
0,8285	-47,9	11,7
0,829	-44,1	11,4
0,8295	-38,8	10,8
0,83	-32,5	10,3
0,8305	-26,4	10,0
0,831	-21,0	9,9
0,8315	-14,7	9,8
0,832	-5,6	9,8
0,8325	6,3	9,8
0,833	19,0	9,7
0,8335	29,7	9,3
0,834	37,8	8,6
0,8345	44,1	7,9
0,835	49,3	7,1
0,8355	52,8	6,3
0,836	52,9	5,9
0,8365	48,4	6,4
0,837	39,3	8,0
0,8375	25,8	10,4
0,838	8,2	13,0
0,8385	-12,1	15,2
0,839	-32,9	16,5
0,8395	-52,4	16,7
0,84	-69,0	16,5
0,8405	-81,3	16,3
0,841	-88,1	16,7
0,8415	-88,9	17,4
0,842	-84,8	18,6
0,8425	-77,8	19,9
0,843	-69,8	21,2
0,8435	-61,7	21,9
0,844	-53,1	21,8
0,8445	-43,6	20,7
0,845	-32,9	18,8
0,8455	-21,3	16,4
0,846	-9,0	13,8
0,8465	2,6	11,3
0,847	11,5	9,5
0,8475	16,3	8,7
0,848	17,4	8,7
0,8485	17,0	9,1
0,849	16,9	9,7
0,8495	18,1	10,2
0,85	20,4	10,5
0,8505	23,1	11,0
0,851	25,8	11,6
0,8515	28,0	12,2
0,852	29,6	12,6
0,8525	30,0	12,7
0,853	29,5	12,5
0,8535	28,4	12,4
0,854	26,6	12,4
0,8545	23,7	12,5
0,855	19,2	12,4
0,8555	13,8	12,1
0,856	8,1	11,4
0,8565	2,5	10,8
0,857	-3,0	10,6
0,8575	-8,4	10,9
0,858	-13,7	11,6
0,8585	-18,9	12,4
0,859	-23,7	13,3
0,8595	-27,7	14,0
0,86	-30,8	14,8
0,8605	-32,9	15,3
0,861	-33,7	15,1
0,8615	-32,1	14,1
0,862	-27,1	12,5
0,8625	-18,5	10,5
0,863	-7,8	8,4
0,8635	2,8	6,8
0,864	11,0	5,9
0,8645	15,6	5,8
0,865	15,7	6,2
0,8655	11,6	7,0
0,866	4,7	8,1
0,8665	-3,3	9,3
0,867	-10,7	10,2
0,8675	-17,2	10,4
0,868	-22,0	9,9
0,8685	-24,8	8,8
0,869	-24,8	7,8
0,8695	-22,1	7,1
0,87	-17,9	7,2
0,8705	-14,0	7,8
0,871	-11,7	8,8
0,8715	-11,4	9,8
0,872	-12,6	10,4
0,8725	-14,6	10,5
0,873	-16,2	10,3
0,8735	-17,2	9,9
0,874	-18,1	9,8
0,8745	-20,0	10,2
0,875	-23,4	10,8
0,8755	-27,7	11,8
0,876	-31,9	12,9
0,8765	-34,9	13,8
0,877	-36,2	14,5
0,8775	-35,8	14,7
0,878	-34,4	14,6
0,8785	-32,5	13,7
0,879	-30,8	12,1
0,8795	-29,6	10,0
0,88	-28,5	7,9
0,8805	-27,3	6,4
0,881	-26,0	5,6
0,8815	-24,9	5,3
0,882	-23,9	5,5
0,8825	-22,9	5,7
0,883	-21,8	5,8
0,8835	-20,4	5,5
0,884	-19,1	5,2
0,8845	-17,7	4,8
0,885	-15,7	4,8
0,8855	-12,6	4,8
0,886	-8,8	4,8
0,8865	-5,2	4,9
0,887	-2,3	5,0
0,8875	-0,8	5,2
0,888	-0,4	5,6
0,8885	-0,9	6,1
0,889	-1,5	6,8
0,8895	-2,0	7,6
0,89	-2,3	8,3
0,8905	-3,1	8,8
0,891	-4,5	8,9
0,8915	-6,0	8,9
0,892	-7,0	9,4
0,8925	-7,8	10,3
0,893	-9,4	11,1
0,8935	-12,3	11,4
0,894	-15,6	11,1
0,8945	-18,0	10,2
0,895	-18,7	9,0
0,8955	-18,1	7,5
0,896	-16,9	6,0
0,8965	-15,9	4,6
0,897	-15,6	3,8
0,8975	-15,8	4,0
0,898	-16,1	4,9
0,8985	-16,5	6,1
0,899	-16,8	7,2
0,8995	-16,8	8,1
0,9	-16,3	8,7
0,9005	-15,1	8,8
0,901	-13,9	8,3
0,9015	-13,4	7,6
0,902	-13,7	6,7
0,9025	-14,3	6,0
0,903	-15,3	5,6
0,9035	-16,6	5,5
0,904	-18,1	5,7
0,9045	-19,6	6,1
0,905	-21,0	6,5
0,9055	-22,7	6,8
0,906	-24,7	6,7
0,9065	-26,7	6,7
0,907	-28,5	6,8
0,9075	-30,0	7,2
0,908	-31,0	7,7
0,9085	-31,1	8,2
0,909	-30,2	8,5
0,9095	-27,7	8,7
0,91	-23,3	9,0
0,9105	-17,1	9,4
0,911	-10,0	9,9
0,9115	-3,7	10,2
0,912	0,8	10,4
0,9125	3,3	10,2
0,913	3,8	9,7
0,9135	3,3	9,3
0,914	2,3	9,3
0,9145	1,8	10,2
0,915	1,9	11,5
0,9155	2,6	12,6
0,916	3,3	13,2
0,9165	3,5	12,9
0,917	2,5	12,2
0,9175	0,4	11,2
0,918	-2,4	9,9
0,9185	-6,0	8,5
0,919	-10,1	7,2
0,9195	-13,9	6,4
0,92	-16,4	6,4
0,9205	-16,9	7,4
0,921	-16,0	9,2
0,9215	-14,3	11,1
0,922	-12,3	12,2
0,9225	-11,0	12,3
0,923	-11,1	11,5
0,9235	-13,5	10,3
0,924	-18,6	9,3
0,9245	-25,9	8,6
0,925	-35,1	8,2
0,9255	-45,3	8,0
0,926	-55,7	7,6
0,9265	-65,1	7,4
0,927	-72,2	7,5
0,9275	-76,0	8,2
0,928	-76,4	9,0
0,9285	-74,2	9,8
0,929	-69,4	10,6
0,9295	-61,3	11,0
0,93	-49,6	11,1
0,9305	-35,0	10,9
0,931	-19,3	10,8
0,9315	-4,2	10,8
0,932	8,7	10,8
0,9325	18,2	10,7
0,933	24,2	10,4
0,9335	27,2	9,9
0,934	27,7	9,3
0,9345	25,4	8,5
0,935	19,7	7,8
0,9355	10,8	7,2
0,936	-0,5	6,9
0,9365	-12,2	7,0
0,937	-22,4	7,4
0,9375	-30,7	7,8
0,938	-37,1	8,3
0,9385	-41,8	8,6
0,939	-44,2	8,6
0,9395	-43,6	8,5
0,94	-40,8	8,4
0,9405	-36,8	8,3
0,941	-32,6	8,3
0,9415	-28,8	8,2
0,942	-26,0	8,0
0,9425	-24,0	7,9
0,943	-21,8	7,9
0,9435	-18,6	7,8
0,944	-14,2	7,5
0,9445	-9,5	6,9
0,945	-5,5	6,3
0,9455	-2,7	5,7
0,946	-0,3	5,3
0,9465	2,0	4,9
0,947	4,5	4,8
0,9475	6,7	5,0
0,948	8,0	5,4
0,9485	7,8	5,8
0,949	6,1	6,0
0,9495	4,1	5,8
0,95	3,2	5,5
0,9505	3,5	5,1
0,951	3,9	4,7
0,9515	3,4	4,4
0,952	1,7	4,1
0,9525	-1,5	3,8
0,953	-5,5	3,7
0,9535	-9,7	4,0
0,954	-13,4	5,1
0,9545	-16,3	6,6
0,955	-18,1	7,9
0,9555	-19,0	8,6
0,956	-19,5	8,6
0,9565	-20,0	8,1
0,957	-20,5	7,3
0,9575	-21,1	6,5
0,958	-21,5	5,9
0,9585	-21,8	5,8
0,959	-21,8	6,2
0,9595	-21,5	6,6
0,96	-20,9	6,9
0,9605	-19,9	6,9
0,961	-18,7	6,6
0,9615	-17,7	6,1
0,962	-16,8	5,4
0,9625	-16,3	4,7
0,963	-16,0	3,8
0,9635	-16,2	3,3
0,964	-16,8	3,1
0,9645	-17,0	3,5
0,965	-16,2	4,3
0,9655	-14,5	5,0
0,966	-12,3	5,4
0,9665	-10,0	5,5
0,967	-7,5	5,3
0,9675	-4,6	5,1
0,968	-1,4	5,0
0,9685	1,6	4,9
0,969	3,6	4,6
0,9695	4,0	4,4
0,97	2,9	4,4
0,9705	1,1	4,7
0,971	-0,9	5,2
0,9715	-2,4	5,8
0,972	-3,1	6,5
0,9725	-2,5	7,1
0,973	-1,0	7,3
0,9735	0,6	7,0
0,974	1,4	6,3
0,9745	1,2	5,8
0,975	0,2	5,6
0,9755	-1,4	5,8
0,976	-3,5	6,2
0,9765	-5,6	6,6
0,977	-7,1	7,3
0,9775	-7,6	8,1
0,978	-6,8	9,0
0,9785	-5,4	9,4
0,979	-4,0	9,0
0,9795	-3,0	7,8
0,98	-2,6	6,0
0,9805	-3,1	4,3
0,981	-4,7	2,9
0,9815	-7,2	2,0
0,982	-10,4	1,4
0,9825	-13,6	0,7
0,983	-16,1	-0,1
0,9835	-17,4	-1,0
0,984	-17,3	-1,8
0,9845	-15,8	-2,3
0,985	-13,5	-2,2
0,9855	-11,4	-1,6
0,986	-9,8	-0,7
0,9865	-8,7	0,5
0,987	-8,0	1,4
0,9875	-7,6	2,4
0,988	-7,3	3,6
0,9885	-7,0	5,1
0,989	-6,4	6,3
0,9895	-5,5	6,9
0,99	-4,4	6,9
0,9905	-3,4	6,7
0,991	-2,9	6,9
0,9915	-3,0	7,4
0,992	-3,8	7,9
0,9925	-4,7	8,2
0,993	-5,2	8,3
0,9935	-5,1	8,3
0,994	-4,5	8,3
0,9945	-3,9	8,0
0,995	-3,6	7,6
0,9955	-3,6	7,0
0,996	-4,2	6,4
0,9965	-5,5	5,7
0,997	-7,7	4,8
0,9975	-10,0	4,1
0,998	-11,7	3,9
0,9985	-12,7	4,0
0,999	-13,2	4,4
0,9995	-13,3	4,6
1	-13,3	4,6
1,0005	-13,2	4,1
1,001	-13,2	3,1
1,0015	-13,7	1,9
1,002	-15,1	0,8
1,0025	-17,2	0,0
1,003	-19,4	-0,3
1,0035	-20,6	0,1
1,004	-20,3	1,0
1,0045	-18,4	2,3
1,005	-15,0	3,7
1,0055	-10,5	4,4
1,006	-5,1	4,5
1,0065	0,6	4,0
1,007	5,6	3,2
1,0075	8,9	2,5
1,008	10,2	1,9
1,0085	9,5	1,8
1,009	7,6	2,3
1,0095	4,6	3,3
1,01	1,2	4,3
1,0105	-1,9	5,0
1,011	-4,6	5,1
1,0115	-6,8	4,8
1,012	-8,3	4,3
1,0125	-9,1	3,7
1,013	-9,5	3,0
1,0135	-10,4	2,2
1,014	-12,4	1,6
1,0145	-15,4	1,3
1,015	-18,6	1,1
1,0155	-21,0	1,1
1,016	-22,2	1,4
1,0165	-22,1	1,9
1,017	-21,5	2,3
1,0175	-21,0	2,4
1,018	-21,0	2,1
1,0185	-21,5	1,8
1,019	-22,3	2,1
1,0195	-22,9	2,8
1,02	-22,5	3,7
1,0205	-21,4	4,5
1,021	-20,0	5,4
1,0215	-19,1	6,1
1,022	-18,6	6,4
1,0225	-18,2	6,2
1,023	-17,5	5,5
1,0235	-16,8	4,5
1,024	-16,7	3,5
1,0245	-17,3	2,8
1,025	-18,4	2,5
1,0255	-19,6	2,7
1,026	-20,3	3,1
1,0265	-20,3	3,5
1,027	-19,7	3,6
1,0275	-18,8	3,2
1,028	-18,0	2,3
1,0285	-17,8	1,0
1,029	-18,2	-0,1
1,0295	-18,6	-0,9
1,03	-18,8	-1,4
1,0305	-19,0	-1,4
1,031	-19,3	-0,8
1,0315	-19,4	0,5
1,032	-18,3	2,2
1,0325	-15,2	3,8
1,033	-9,6	4,8
1,0335	-1,8	5,0
1,034	7,2	4,9
1,0345	15,8	4,7
1,035	22,6	4,6
1,0355	26,8	4,3
1,036	28,0	3,8
1,0365	26,8	3,3
1,037	24,6	2,8
1,0375	22,6	2,5
1,038	21,7	2,8
1,0385	21,7	3,3
1,039	21,8	3,7
1,0395	21,4	3,4
1,04	20,4	2,8
1,0405	18,9	2,4
1,041	17,3	2,5
1,0415	15,2	3,1
1,042	11,8	3,8
1,0425	6,6	4,2
1,043	0,0	4,4
1,0435	-6,5	5,1
1,044	-11,7	6,7
1,0445	-14,9	8,9
1,045	-16,3	11,0
1,0455	-16,6	12,3
1,046	-16,7	12,7
1,0465	-17,8	12,2
1,047	-20,0	11,1
1,0475	-22,9	9,7
1,048	-25,4	8,0
1,0485	-26,8	6,3
1,049	-26,6	4,6
1,0495	-24,2	3,0
1,05	-19,1	1,5
1,0505	-11,6	0,3
1,051	-3,2	-0,6
1,0515	3,8	-0,9
1,052	7,4	-0,9
1,0525	7,0	-0,8
1,053	3,3	-0,6
1,0535	-1,6	0,1
1,054	-6,3	1,1
1,0545	-10,3	2,3
1,055	-13,7	3,3
1,0555	-16,8	3,7
1,056	-19,7	3,4
1,0565	-22,7	2,6
1,057	-25,9	1,8
1,0575	-28,8	1,5
1,058	-30,5	1,8
1,0585	-30,5	2,8
1,059	-29,1	4,0
1,0595	-26,6	5,1
1,06	-23,4	5,6
1,0605	-20,3	5,8
1,061	-17,3	5,9
1,0615	-14,6	6,1
1,062	-11,9	6,0
1,0625	-9,7	5,6
1,063	-8,3	5,1
1,0635	-7,8	4,5
1,064	-8,0	4,2
1,0645	-8,1	4,2
1,065	-7,8	4,5
1,0655	-7,4	5,0
1,066	-7,5	5,6
1,0665	-8,2	5,9
1,067	-9,9	6,0
1,0675	-12,9	5,7
1,068	-17,0	5,4
1,0685	-21,8	5,3
1,069	-26,2	5,6
1,0695	-28,8	5,8
1,07	-29,4	5,8
1,0705	-28,2	5,6
1,071	-25,9	5,5
1,0715	-23,2	5,9
1,072	-20,1	6,5
1,0725	-16,5	6,8
1,073	-12,6	6,6
1,0735	-8,7	5,8
1,074	-5,1	4,9
1,0745	-2,3	3,8
1,075	-0,2	2,8
1,0755	1,3	2,2
1,076	2,5	2,0
1,0765	3,9	2,2
1,077	5,4	2,7
1,0775	6,5	3,2
1,078	6,7	3,4
1,0785	5,8	3,1
1,079	4,1	2,3
1,0795	2,0	1,5
1,08	0,4	0,8
1,0805	-0,3	0,7
1,081	0,8	1,1
1,0815	4,1	1,9
1,082	8,8	2,5
1,0825	13,9	2,6
1,083	18,3	2,2
1,0835	21,8	1,5
1,084	24,5	0,9
1,0845	26,4	0,5
1,085	27,5	0,4
1,0855	27,8	0,6
1,086	27,3	0,9
1,0865	26,3	1,2
1,087	25,1	1,4
1,0875	23,3	1,6
1,088	20,4	2,2
1,0885	16,3	3,1
1,089	11,5	3,9
1,0895	6,6	4,3
1,09	2,3	4,1
1,0905	-1,1	3,7
1,091	-3,5	3,5
1,0915	-5,2	3,5
1,092	-6,7	3,5
1,0925	-8,2	3,3
1,093	-9,4	3,0
1,0935	-10,2	2,7
1,094	-10,8	2,7
1,0945	-11,2	2,7
1,095	-11,1	2,7
1,0955	-10,1	2,7
1,096	-7,9	2,3
1,0965	-5,2	1,8
1,097	-2,7	1,2
1,0975	-0,9	0,8
1,098	0,3	0,8
1,0985	1,7	1,3
1,099	4,9	2,2
1,0995	11,8	3,1
1,1	22,0	3,8
1,1005	32,6	4,3
1,101	40,0	4,6
1,1015	42,9	4,5
1,102	42,1	4,2
1,1025	38,9	3,5
1,103	35,2	2,8
1,1035	31,7	2,4
1,104	28,3	2,4
1,1045	24,3	2,7
1,105	19,7	2,9
1,1055	16,1	2,9
1,106	15,1	2,7
1,1065	17,1	2,5
1,107	20,1	2,4
1,1075	21,4	2,6
1,108	19,4	2,9
1,1085	14,8	3,5
1,109	9,3	4,5
1,1095	3,5	5,7
1,11	-3,0	6,6
1,1105	-10,8	7,1
1,111	-19,6	7,0
1,1115	-28,6	6,6
1,112	-36,9	6,0
1,1125	-44,2	5,4
1,113	-49,6	4,8
1,1135	-52,3	4,1
1,114	-51,7	3,6
1,1145	-48,1	3,3
1,115	-42,4	2,9
1,1155	-36,6	2,5
1,116	-32,5	2,0
1,1165	-30,4	1,6
1,117	-29,2	1,1
1,1175	-27,5	0,4
1,118	-25,6	-0,7
1,1185	-24,4	-2,0
1,119	-23,8	-3,3
1,1195	-22,9	-4,1
1,12	-20,8	-4,3
1,1205	-17,7	-3,8
1,121	-13,8	-2,8
1,1215	-9,4	-1,6
1,122	-3,9	-0,5
1,1225	2,4	0,0
1,123	8,7	-0,0
1,1235	13,5	-0,5
1,124	16,3	-1,0
1,1245	17,3	-1,4
1,125	17,5	-1,5
1,1255	17,2	-1,2
1,126	16,9	-0,3
1,1265	16,9	1,0
1,127	17,3	2,3
1,1275	17,9	3,3
1,128	18,2	3,9
1,1285	17,3	3,9
1,129	15,4	3,4
1,1295	12,8	2,7
1,13	10,4	1,9
1,1305	8,8	1,3
1,131	7,5	0,9
1,1315	4,6	1,1
1,132	-2,3	1,8
1,1325	-13,8	2,8
1,133	-28,0	3,7
1,1335	-42,4	4,3
1,134	-54,5	4,5
1,1345	-62,1	4,2
1,135	-64,5	3,7
1,1355	-62,9	3,4
1,136	-59,3	3,8
1,1365	-54,7	4,8
1,137	-48,0	6,0
1,1375	-37,0	6,9
1,138	-21,5	7,1
1,1385	-4,0	6,9
1,139	12,5	6,3
1,1395	25,9	5,7
1,14	35,7	5,1
1,1405	41,4	4,6
1,141	42,6	4,3
1,1415	38,3	4,3
1,142	28,5	4,6
1,1425	14,0	5,3
1,143	-2,9	6,0
1,1435	-19,1	6,5
1,144	-31,9	6,6
1,1445	-39,6	6,6
1,145	-42,6	6,4
1,1455	-42,8	6,1
1,146	-41,3	5,5
1,1465	-38,3	4,6
1,147	-32,9	3,5
1,1475	-24,5	2,5
1,148	-13,5	1,6
1,1485	-1,6	0,8
1,149	10,4	0,1
1,1495	23,4	-0,4
1,15	39,2	-0,8
1,1505	58,8	-1,2
1,151	80,8	-1,7
1,1515	102,9	-2,0
1,152	121,2	-2,3
1,1525	132,5	-2,4
1,153	135,9	-2,5
1,1535	131,9	-2,6
1,154	121,1	-2,5
1,1545	103,5	-1,9
1,155	78,9	-0,8
1,1555	48,5	0,4
1,156	14,8	1,6
1,1565	-18,8	2,3
1,157	-49,2	2,8
1,1575	-74,1	3,2
1,158	-92,1	3,8
1,1585	-102,2	4,8
1,159	-104,3	5,7
1,1595	-99,2	6,3
1,16	-88,4	6,6
1,1605	-74,2	6,8
1,161	-58,6	6,8
1,1615	-42,7	6,7
1,162	-26,8	6,4
1,1625	-11,1	5,9
1,163	4,3	5,0
1,1635	18,8	3,8
1,164	31,3	2,3
1,1645	39,8	1,1
1,165	42,9	0,1
1,1655	40,7	-0,4
1,166	35,2	-0,3
1,1665	28,7	0,3
1,167	23,4	0,9
1,1675	20,2	1,3
1,168	18,5	1,0
1,1685	17,7	0,4
1,169	16,7	-0,5
1,1695	14,8	-1,1
1,17	11,7	-1,2
1,1705	7,7	-0,9
1,171	3,2	-0,3
1,1715	-1,4	0,5
1,172	-5,8	1,2
1,1725	-9,7	1,5
1,173	-12,3	1,6
1,1735	-13,3	1,4
1,174	-12,2	1,2
1,1745	-8,8	1,3
1,175	-4,1	1,6
1,1755	0,0	2,0
1,176	2,4	2,7
1,1765	2,8	3,6
1,177	2,3	4,7
1,1775	2,1	5,8
1,178	2,8	6,7
1,1785	4,6	7,3
1,179	7,6	7,6
1,1795	10,9	7,4
1,18	14,0	6,6
1,1805	16,1	5,2
1,181	16,7	3,5
1,1815	15,0	1,8
1,182	11,1	0,3
1,1825	5,9	-1,0
1,183	1,0	-2,1
1,1835	-2,5	-2,8
1,184	-4,6	-3,0
1,1845	-6,0	-2,8
1,185	-7,3	-2,6
1,1855	-8,9	-2,4
1,186	-11,1	-2,3
1,1865	-13,6	-1,9
1,187	-15,6	-1,3
1,1875	-16,3	-0,4
1,188	-15,7	0,3
1,1885	-14,1	0,8
1,189	-12,1	0,8
1,1895	-9,8	0,6
1,19	-7,1	0,1
1,1905	-4,1	-0,6
1,191	-0,9	-1,2
1,1915	2,3	-1,4
1,192	5,2	-1,1
1,1925	7,6	-0,3
1,193	9,3	0,7
1,1935	10,2	1,7
1,194	10,6	2,2
1,1945	10,9	2,1
1,195	11,4	1,4
1,1955	11,9	0,6
1,196	12,7	-0,1
1,1965	13,6	-0,9
1,197	14,6	-1,7
1,1975	15,5	-2,3
1,198	16,1	-2,5
1,1985	16,6	-2,6
1,199	16,8	-2,6
1,1995	17,3	-2,7
1,2	18,7	-2,8
1,2005	21,0	-2,8
1,201	23,7	-2,8
1,2015	25,7	-2,8
1,202	26,5	-2,8
1,2025	25,4	-2,7
1,203	22,3	-2,0
1,2035	17,2	-0,5
1,204	10,6	1,5
1,2045	3,0	3,8
1,205	-4,7	5,8
1,2055	-11,5	6,9
1,206	-17,1	6,9
1,2065	-21,7	6,1
1,207	-25,5	4,6
1,2075	-28,6	3,0
1,208	-30,7	1,7
1,2085	-31,7	0,8
1,209	-31,8	0,6
1,2095	-31,3	1,2
1,21	-30,2	2,0
1,2105	-28,3	2,8
1,211	-25,1	3,0
1,2115	-20,8	2,7
1,212	-16,3	2,3
1,2125	-12,1	1,8
1,213	-8,3	1,5
1,2135	-4,7	1,1
1,214	-1,2	0,8
1,2145	1,8	0,6
1,215	3,8	0,6
1,2155	4,9	0,8
1,216	5,4	0,8
1,2165	5,7	0,6
1,217	6,5	-0,0
1,2175	8,0	-1,0
1,218	10,2	-1,9
1,2185	12,8	-2,6
1,219	15,1	-3,1
1,2195	17,1	-3,2
1,22	18,3	-2,8
1,2205	18,7	-1,8
1,221	18,2	-0,4
1,2215	16,8	1,2
1,222	14,9	2,6
1,2225	12,5	3,7
1,223	9,6	4,3
1,2235	6,1	4,5
1,224	2,2	4,4
1,2245	-1,7	4,0
1,225	-5,1	3,3
1,2255	-7,8	2,6
1,226	-10,1	2,0
1,2265	-12,3	1,7
1,227	-14,3	1,7
1,2275	-16,2	2,1
1,228	-17,6	2,7
1,2285	-18,4	3,0
1,229	-18,4	3,1
1,2295	-17,4	2,8
1,23	-15,8	2,2
1,2305	-14,2	1,4
1,231	-12,8	0,5
1,2315	-11,6	-0,2
1,232	-9,8	-0,5
1,2325	-6,6	-0,3
1,233	-1,3	0,4
1,2335	5,9	1,2
1,234	14,1	1,6
1,2345	21,9	1,7
1,235	28,3	1,3
1,2355	32,6	0,7
1,236	34,6	0,3
1,2365	34,5	0,1
1,237	32,7	0,3
1,2375	29,3	1,2
1,238	24,8	2,4
1,2385	19,5	4,0
1,239	14,0	5,7
1,2395	8,6	7,0
1,24	3,2	7,7
1,2405	-2,5	7,3
1,241	-8,8	5,7
1,2415	-15,6	3,2
1,242	-22,5	0,6
1,2425	-29,0	-1,4
1,243	-34,5	-2,6
1,2435	-38,2	-2,8
1,244	-39,9	-2,4
1,2445	-39,7	-1,5
1,245	-37,8	-0,4
1,2455	-35,0	0,5
1,246	-31,7	1,0
1,2465	-28,3	1,1
1,247	-25,0	0,8
1,2475	-22,3	0,4
1,248	-20,5	0,2
1,2485	-19,4	0,2
1,249	-18,4	0,4
1,2495	-17,0	0,8
1,25	-15,0	1,3
1,2505	-12,0	1,6
1,251	-7,8	1,3
1,2515	-2,4	0,5
1,252	3,2	-0,8
1,2525	7,7	-2,3
1,253	10,4	-3,7
1,2535	12,0	-4,6
1,254	13,4	-5,0
1,2545	14,8	-5,0
1,255	15,3	-4,8
1,2555	14,1	-4,7
1,256	11,5	-4,8
1,2565	8,8	-5,0
1,257	6,5	-5,3
1,2575	4,5	-5,8
1,258	1,5	-6,4
1,2585	-2,8	-6,9
1,259	-7,7	-6,9
1,2595	-12,4	-6,1
1,26	-16,2	-4,3
1,2605	-19,0	-2,0
1,261	-20,4	0,2
1,2615	-20,1	1,5
1,262	-18,6	1,9
1,2625	-16,9	1,4
1,263	-16,0	0,4
1,2635	-15,9	-0,6
1,264	-16,6	-1,1
1,2645	-18,0	-0,6
1,265	-20,3	0,6
1,2655	-23,2	2,2
1,266	-26,1	3,5
1,2665	-28,2	4,5
1,267	-29,2	5,1
1,2675	-29,5	5,2
1,268	-29,7	4,7
1,2685	-30,1	3,7
1,269	-30,3	2,4
1,2695	-29,9	1,4
1,27	-28,6	0,7
1,2705	-26,9	0,4
1,271	-24,8	0,3
1,2715	-22,2	0,3
1,272	-18,1	0,6
1,2725	-12,0	0,9
1,273	-4,8	1,0
1,2735	2,0	0,8
1,274	6,8	0,4
1,2745	9,3	-0,1
1,275	9,7	-0,6
1,2755	8,7	-1,0
1,276	7,3	-1,2
1,2765	6,1	-1,0
1,277	5,8	-0,5
1,2775	6,9	0,1
1,278	9,2	0,4
1,2785	12,2	-0,0
1,279	15,0	-1,0
1,2795	17,2	-2,3
1,28	18,2	-3,5
1,2805	17,8	-4,3
1,281	16,1	-4,3
1,2815	14,2	-3,3
1,282	13,0	-1,8
1,2825	13,3	-0,5
1,283	15,3	0,6
1,2835	18,1	1,3
1,284	21,3	1,6
1,2845	24,1	1,4
1,285	25,9	0,9
1,2855	26,3	0,4
1,286	25,1	0,1
1,2865	22,1	0,0
1,287	17,5	0,3
1,2875	11,8	0,8
1,288	5,6	1,7
1,2885	-0,1	2,8
1,289	-4,8	3,8
1,2895	-8,3	4,3
1,29	-11,2	4,3
1,2905	-14,3	4,0
1,291	-18,1	3,7
1,2915	-22,5	3,3
1,292	-26,7	2,7
1,2925	-30,2	2,1
1,293	-32,7	1,6
1,2935	-34,3	1,3
1,294	-34,6	1,2
1,2945	-33,6	1,3
1,295	-31,8	1,3
1,2955	-29,7	1,2
1,296	-27,6	0,8
1,2965	-24,9	0,2
1,297	-20,6	-0,4
1,2975	-14,3	-0,6
1,298	-7,1	-0,5
1,2985	-0,6	-0,3
1,299	4,8	-0,5
1,2995	9,1	-1,0
1,3	13,1	-1,8
1,3005	17,6	-2,8
1,301	22,9	-3,7
1,3015	28,3	-4,3
1,302	32,2	-4,4
1,3025	33,4	-3,9
1,303	31,5	-3,0
1,3035	27,3	-1,7
1,304	21,5	-0,1
1,3045	14,7	1,8
1,305	7,0	3,6
1,3055	-1,0	5,0
1,306	-8,4	5,8
1,3065	-14,7	6,2
1,307	-20,0	6,3
1,3075	-24,1	6,2
1,308	-26,8	6,0
1,3085	-28,4	5,9
1,309	-29,3	5,9
1,3095	-30,3	5,9
1,31	-31,3	5,5
1,3105	-31,3	4,6
1,311	-28,6	3,5
1,3115	-22,5	2,5
1,312	-13,8	1,8
1,3125	-3,8	1,6
1,313	7,4	1,6
1,3135	20,7	1,5
1,314	34,7	1,3
1,3145	46,8	0,8
1,315	55,5	0,4
1,3155	60,5	0,3
1,316	61,0	0,4
1,3165	56,1	0,7
1,317	45,5	0,9
1,3175	30,5	0,8
1,318	13,1	0,5
1,3185	-5,2	0,2
1,319	-23,5	-0,0
1,3195	-41,7	0,1
1,32	-58,8	0,5
1,3205	-73,6	1,0
1,321	-84,4	1,6
1,3215	-90,1	2,1
1,322	-89,6	2,2
1,3225	-82,3	2,0
1,323	-69,1	1,5
1,3235	-52,8	1,2
1,324	-36,5	1,1
1,3245	-22,3	1,1
1,325	-10,3	1,2
1,3255	-0,3	1,2
1,326	7,6	1,2
1,3265	13,3	1,5
1,327	17,7	2,0
1,3275	21,5	2,5
1,328	25,1	2,8
1,3285	27,9	2,9
1,329	29,7	2,8
1,3295	30,3	2,8
1,33	30,1	2,6
1,3305	29,7	2,5
1,331	28,8	2,6
1,3315	27,4	2,9
1,332	25,4	3,5
1,3325	22,8	3,9
1,333	19,5	4,0
1,3335	15,4	3,8
1,334	10,3	3,2
1,3345	4,1	2,3
1,335	-2,4	1,5
1,3355	-8,5	1,2
1,336	-13,5	1,3
1,3365	-17,3	1,7
1,337	-20,4	2,0
1,3375	-23,0	2,3
1,338	-24,8	2,8
1,3385	-25,8	3,4
1,339	-26,0	3,8
1,3395	-26,3	3,7
1,34	-27,0	2,8
1,3405	-27,4	1,4
1,341	-25,6	0,1
1,3415	-20,7	-0,9
1,342	-13,8	-1,2
1,3425	-7,0	-0,9
1,343	-1,7	-0,2
1,3435	2,0	0,8
1,344	3,8	2,0
1,3445	3,3	3,2
1,345	-0,2	4,1
1,3455	-6,0	4,4
1,346	-12,9	4,2
1,3465	-19,5	3,7
1,347	-24,8	3,0
1,3475	-28,4	2,2
1,348	-30,1	1,3
1,3485	-29,8	0,6
1,349	-27,7	0,1
1,3495	-23,7	0,1
1,35	-18,0	0,4
1,3505	-11,4	0,9
1,351	-5,4	1,3
1,3515	-1,5	1,5
1,352	0,1	1,5
1,3525	0,3	1,3
1,353	0,3	1,1
1,3535	1,3	1,0
1,354	3,8	1,2
1,3545	7,0	1,9
1,355	9,8	3,2
1,3555	10,8	4,6
1,356	9,5	5,7
1,3565	6,0	6,1
1,357	1,1	5,7
1,3575	-3,7	4,7
1,358	-6,7	3,7
1,3585	-7,5	3,2
1,359	-7,0	3,3
1,3595	-6,2	3,9
1,36	-5,5	4,6
1,3605	-4,6	4,9
1,361	-3,2	4,6
1,3615	-1,4	3,9
1,362	0,8	3,2
1,3625	3,5	2,6
1,363	6,3	2,2
1,3635	8,5	1,8
1,364	9,5	1,5
1,3645	9,2	1,5
1,365	7,8	1,8
1,3655	5,9	2,1
1,366	4,4	2,5
1,3665	3,5	2,7
1,367	3,6	2,5
1,3675	4,5	2,4
1,368	5,9	2,4
1,3685	8,0	2,4
1,369	10,4	2,3
1,3695	12,9	2,1
1,37	15,7	1,8
1,3705	19,3	1,5
1,371	24,3	1,3
1,3715	30,3	1,3
1,372	36,6	1,6
1,3725	42,3	1,8
1,373	46,8	1,9
1,3735	49,8	1,7
1,374	51,1	1,4
1,3745	50,5	1,0
1,375	47,4	0,8
1,3755	41,7	0,7
1,376	34,2	0,9
1,3765	26,0	1,6
1,377	18,4	2,7
1,3775	12,4	3,6
1,378	8,6	4,3
1,3785	6,5	4,5
1,379	5,1	4,4
1,3795	3,0	4,0
1,38	-0,3	3,1
1,3805	-4,5	2,0
1,381	-9,1	1,3
1,3815	-13,0	1,3
1,382	-15,7	1,9
1,3825	-16,9	2,7
1,383	-17,0	3,3
1,3835	-16,5	3,5
1,384	-15,9	3,0
1,3845	-15,9	2,0
1,385	-16,8	0,6
1,3855	-18,4	-0,6
1,386	-20,3	-1,3
1,3865	-21,7	-1,3
1,387	-22,2	-1,1
1,3875	-21,4	-0,8
1,388	-19,6	-0,4
1,3885	-17,3	-0,1
1,389	-14,5	0,1
1,3895	-11,2	0,2
1,39	-7,1	0,1
1,3905	-2,5	0,0
1,391	2,4	0,0
1,3915	7,6	0,0
1,392	12,8	0,3
1,3925	17,7	0,9
1,393	22,4	1,8
1,3935	26,8	2,9
1,394	30,3	4,0
1,3945	32,3	5,1
1,395	32,3	5,9
1,3955	31,0	6,3
1,396	29,1	6,1
1,3965	27,3	5,6
1,397	25,6	5,0
1,3975	23,5	4,5
1,398	20,4	4,3
1,3985	16,5	4,3
1,399	12,5	4,4
1,3995	9,3	4,7
1,4	7,2	5,2
1,4005	5,7	5,4
1,401	4,0	5,1
1,4015	1,5	4,2
1,402	-1,7	2,9
1,4025	-5,6	1,4
1,403	-9,8	0,1
1,4035	-13,7	-0,9
1,404	-16,4	-1,6
1,4045	-18,0	-1,7
1,405	-18,5	-1,2
1,4055	-17,9	-0,1
1,406	-16,3	1,1
1,4065	-14,1	1,9
1,407	-11,7	2,4
1,4075	-8,9	2,6
1,408	-5,6	2,9
1,4085	-1,6	3,4
1,409	3,5	4,2
1,4095	10,8	4,9
1,41	20,4	5,5
1,4105	31,1	5,8
1,411	40,0	5,6
1,4115	45,3	5,0
1,412	47,0	4,3
1,4125	45,5	3,4
1,413	41,5	2,8
1,4135	35,8	2,3
1,414	28,7	2,2
1,4145	20,2	2,5
1,415	10,8	3,1
1,4155	0,8	3,8
1,416	-8,9	4,4
1,4165	-17,9	4,7
1,417	-25,8	4,5
1,4175	-31,7	3,8
1,418	-35,0	2,9
1,4185	-35,2	2,2
1,419	-32,1	1,7
1,4195	-26,5	1,6
1,42	-18,8	1,8
1,4205	-9,7	2,3
1,421	0,5	2,7
1,4215	10,8	3,0
1,422	20,0	3,0
1,4225	26,8	2,7
1,423	30,9	2,1
1,4235	33,0	1,3
1,424	34,1	0,8
1,4245	34,5	0,7
1,425	34,0	1,3
1,4255	32,0	2,4
1,426	28,2	3,8
1,4265	22,7	5,4
1,427	15,9	7,0
1,4275	8,2	8,5
1,428	0,2	9,5
1,4285	-7,0	9,8
1,429	-12,2	9,6
1,4295	-14,6	9,2
1,43	-15,1	8,8
1,4305	-15,2	8,7
1,431	-16,2	8,8
1,4315	-18,6	8,8
1,432	-21,8	8,6
1,4325	-24,9	8,2
1,433	-27,0	7,4
1,4335	-27,9	6,5
1,434	-27,6	5,7
1,4345	-26,6	5,1
1,435	-25,2	4,9
1,4355	-23,6	4,9
1,436	-21,7	5,1
1,4365	-19,6	5,4
1,437	-17,6	6,0
1,4375	-15,9	6,6
1,438	-14,3	7,4
1,4385	-12,9	8,2
1,439	-11,7	8,9
1,4395	-10,5	9,3
1,44	-9,3	9,2
1,4405	-8,0	8,9
1,441	-5,7	8,5
1,4415	-0,9	8,3
1,442	7,3	8,3
1,4425	18,4	8,5
1,443	29,6	8,9
1,4435	38,1	9,0
1,444	42,7	8,5
1,4445	43,6	7,5
1,445	41,7	6,4
1,4455	38,0	5,7
1,446	33,2	5,7
1,4465	27,3	6,3
1,447	20,8	7,6
1,4475	14,0	9,3
1,448	6,8	11,3
1,4485	-0,6	13,3
1,449	-7,8	15,0
1,4495	-14,1	16,5
1,45	-18,8	17,8
1,4505	-22,0	18,5
1,451	-24,4	18,4
1,4515	-26,5	17,5
1,452	-28,4	15,8
1,4525	-29,0	13,7
1,453	-27,0	11,2
1,4535	-21,9	8,9
1,454	-14,8	7,2
1,4545	-7,9	6,3
1,455	-2,7	6,3
1,4555	0,3	7,0
1,456	1,0	7,8
1,4565	-0,3	8,2
1,457	-3,4	8,0
1,4575	-7,5	7,3
1,458	-12,2	6,5
1,4585	-16,9	5,9
1,459	-21,4	5,8
1,4595	-25,6	6,1
1,46	-28,9	6,7
1,4605	-30,8	7,3
1,461	-31,1	7,7
1,4615	-29,4	7,9
1,462	-26,3	8,0
1,4625	-22,4	8,0
1,463	-17,9	7,6
1,4635	-12,7	6,8
1,464	-6,8	5,8
1,4645	0,3	4,8
1,465	9,8	4,0
1,4655	22,8	3,6
1,466	38,7	3,5
1,4665	54,5	3,4
1,467	66,9	3,2
1,4675	74,6	2,9
1,468	77,5	2,5
1,4685	75,7	2,0
1,469	69,6	1,5
1,4695	59,7	1,2
1,47	46,9	1,2
1,4705	32,9	1,3
1,471	19,1	1,7
1,4715	6,9	2,2
1,472	-2,8	2,8
1,4725	-9,5	3,3
1,473	-13,2	3,4
1,4735	-14,3	3,3
1,474	-13,1	3,2
1,4745	-10,3	3,3
1,475	-6,5	3,4
1,4755	-2,2	3,6
1,476	2,3	3,8
1,4765	6,8	4,1
1,477	11,3	4,4
1,4775	15,3	4,7
1,478	18,3	5,1
1,4785	20,5	5,5
1,479	21,8	5,9
1,4795	22,0	6,0
1,48	20,2	5,8
1,4805	15,3	5,3
1,481	7,3	5,0
1,4815	-1,8	5,0
1,482	-9,4	5,3
1,4825	-14,3	5,7
1,483	-16,5	6,1
1,4835	-16,4	6,7
1,484	-14,8	7,2
1,4845	-12,6	7,4
1,485	-10,9	7,1
1,4855	-10,3	6,3
1,486	-10,7	5,4
1,4865	-11,5	4,8
1,487	-12,2	4,7
1,4875	-12,2	4,7
1,488	-11,2	5,0
1,4885	-9,4	5,5
1,489	-7,0	6,0
1,4895	-4,3	6,4
1,49	-1,6	6,4
1,4905	0,5	6,2
1,491	2,0	5,8
1,4915	3,0	5,6
1,492	3,7	5,7
1,4925	4,5	6,0
1,493	6,1	6,4
1,4935	8,9	6,7
1,494	12,8	6,8
1,4945	17,2	6,6
1,495	21,3	6,3
1,4955	24,5	6,1
1,496	26,7	6,2
1,4965	28,1	6,4
1,497	28,6	6,7
1,4975	28,1	7,0
1,498	26,4	7,3
1,4985	24,1	7,5
1,499	22,0	7,6
1,4995	20,5	7,8
1,5	19,4	7,9
1,5005	18,3	8,1
1,501	16,8	8,1
1,5015	15,0	7,8
1,502	12,9	7,2
1,5025	10,7	6,4
1,503	9,0	5,8
1,5035	8,9	5,7
1,504	10,7	5,9
1,5045	13,9	6,3
1,505	16,9	6,8
1,5055	19,5	7,3
1,506	22,0	7,5
1,5065	24,6	7,6
1,507	26,7	7,6
1,5075	27,2	7,3
1,508	25,4	6,8
1,5085	20,7	6,0
1,509	13,7	5,4
1,5095	5,4	5,2
1,51	-2,5	5,3
1,5105	-9,1	5,8
1,511	-13,3	6,3
1,5115	-15,3	6,7
1,512	-15,7	6,8
1,5125	-15,5	6,7
1,513	-15,0	6,6
1,5135	-14,3	6,5
1,514	-13,2	6,4
1,5145	-11,4	6,6
1,515	-8,7	7,2
1,5155	-5,1	7,9
1,516	-1,5	8,6
1,5165	1,2	9,1
1,517	3,3	9,4
1,5175	5,9	9,7
1,518	9,2	9,8
1,5185	12,2	9,5
1,519	13,8	9,0
1,5195	13,6	8,3
1,52	11,9	7,8
1,5205	9,7	7,7
1,521	7,6	7,8
1,5215	6,2	8,4
1,522	5,6	9,0
1,5225	5,4	9,5
1,523	5,6	9,5
1,5235	5,9	9,2
1,524	6,2	8,7
1,5245	5,9	8,2
1,525	5,1	7,5
1,5255	4,1	6,9
1,526	3,4	6,6
1,5265	3,5	6,6
1,527	4,4	6,8
1,5275	6,2	7,0
1,528	8,4	7,3
1,5285	10,4	8,0
1,529	11,8	9,1
1,5295	12,3	10,3
1,53	12,3	11,2
1,5305	12,3	12,0
1,531	12,0	12,8
1,5315	11,2	13,6
1,532	9,7	14,0
1,5325	7,5	13,6
1,533	5,0	12,6
1,5335	3,1	11,5
1,534	2,8	10,4
1,5345	5,0	9,5
1,535	10,0	8,5
1,5355	16,8	7,6
1,536	23,6	7,0
1,5365	28,5	6,6
1,537	30,2	6,5
1,5375	28,6	6,7
1,538	24,7	6,9
1,5385	19,8	7,1
1,539	15,0	7,0
1,5395	10,8	6,9
1,54	7,2	6,8
1,5405	4,0	6,7
1,541	0,9	6,7
1,5415	-1,8	6,7
1,542	-3,6	6,7
1,5425	-3,8	6,7
1,543	-2,5	6,6
1,5435	-0,1	6,6
1,544	3,1	6,7
1,5445	7,0	6,8
1,545	11,5	6,6
1,5455	16,1	6,2
1,546	20,3	5,7
1,5465	23,3	5,3
1,547	24,6	5,3
1,5475	24,2	5,8
1,548	22,3	6,7
1,5485	19,6	7,8
1,549	16,9	8,9
1,5495	15,1	9,7
1,55	14,6	10,2
1,5505	15,4	10,5
1,551	17,3	10,3
1,5515	20,3	9,9
1,552	23,8	9,4
1,5525	26,8	8,8
1,553	27,9	8,6
1,5535	26,4	8,6
1,554	22,0	8,7
1,5545	14,8	8,8
1,555	5,5	9,2
1,5555	-4,7	10,1
1,556	-14,2	11,0
1,5565	-21,7	11,6
1,557	-27,0	11,6
1,5575	-30,5	11,3
1,558	-32,8	11,0
1,5585	-34,6	11,3
1,559	-35,9	12,4
1,5595	-35,6	14,1
1,56	-31,7	15,6
1,5605	-23,3	16,3
1,561	-10,9	16,2
1,5615	3,4	15,4
1,562	17,4	14,2
1,5625	29,8	12,7
1,563	39,6	11,0
1,5635	46,0	9,2
1,564	48,3	7,9
1,5645	46,8	7,4
1,565	42,6	7,7
1,5655	36,9	8,2
1,566	30,8	8,8
1,5665	24,6	9,3
1,567	18,7	9,3
1,5675	13,3	8,7
1,568	8,6	7,8
1,5685	4,5	7,0
1,569	0,9	6,5
1,5695	-1,9	6,3
1,57	-3,4	6,4
1,5705	-3,3	6,9
1,571	-1,8	7,7
1,5715	0,5	8,9
1,572	3,1	10,4
1,5725	5,3	11,7
1,573	7,0	12,4
1,5735	8,1	12,3
1,574	9,1	11,8
1,5745	10,3	11,1
1,575	12,2	10,7
1,5755	15,1	10,6
1,576	18,4	10,9
1,5765	21,9	11,6
1,577	26,0	12,7
1,5775	31,1	13,6
1,578	37,4	13,9
1,5785	43,7	13,3
1,579	47,9	11,8
1,5795	48,8	9,9
1,58	46,4	7,8
1,5805	42,1	5,6
1,581	37,5	3,8
1,5815	32,9	2,7
1,582	27,6	2,5
1,5825	20,6	3,3
1,583	11,8	4,7
1,5835	2,0	6,2
1,584	-8,0	7,6
1,5845	-17,0	8,3
1,585	-24,7	8,3
1,5855	-30,7	7,9
1,586	-34,8	7,5
1,5865	-36,5	7,4
1,587	-36,4	7,5
1,5875	-35,3	7,5
1,588	-33,3	7,2
1,5885	-29,1	6,8
1,589	-21,5	6,8
1,5895	-11,4	7,3
1,59	-1,2	8,4
1,5905	7,6	9,7
1,591	14,8	10,6
1,5915	20,8	10,9
1,592	25,7	10,8
1,5925	29,3	10,6
1,593	31,3	10,5
1,5935	31,5	10,5
1,594	29,9	10,8
1,5945	27,6	11,3
1,595	26,8	11,3
1,5955	29,5	10,7
1,596	35,4	9,5
1,5965	42,4	8,2
1,597	48,0	7,3
1,5975	51,1	7,0
1,598	51,3	7,5
1,5985	48,4	8,3
1,599	42,1	8,8
1,5995	32,7	8,3
1,6	21,3	7,2
1,6005	9,3	6,0
1,601	-2,4	5,2
1,6015	-13,7	4,8
1,602	-24,1	4,7
1,6025	-32,8	4,9
1,603	-38,7	5,4
1,6035	-40,8	6,3
1,604	-39,1	7,3
1,6045	-33,8	8,2
1,605	-26,1	8,8
1,6055	-17,3	8,8
1,606	-8,6	8,2
1,6065	-0,8	7,0
1,607	6,1	5,6
1,6075	12,0	4,1
1,608	17,1	3,0
1,6085	21,4	2,4
1,609	25,3	2,4
1,6095	28,6	3,3
1,61	31,0	4,5
1,6105	31,8	5,6
1,611	30,6	6,2
1,6115	27,8	6,1
1,612	24,9	5,7
1,6125	22,8	5,3
1,613	21,9	5,0
1,6135	21,4	5,2
1,614	20,5	6,0
1,6145	18,9	7,3
1,615	17,5	8,7
1,6155	18,1	9,8
1,616	22,9	10,1
1,6165	32,8	9,7
1,617	46,5	8,6
1,6175	60,7	7,3
1,618	72,1	6,0
1,6185	78,5	5,0
1,619	79,0	4,6
1,6195	73,8	4,7
1,62	64,3	5,4
1,6205	51,8	6,3
1,621	37,3	7,3
1,6215	21,2	8,4
1,622	4,5	9,6
1,6225	-11,3	10,6
1,623	-24,8	11,2
1,6235	-35,2	11,3
1,624	-42,4	11,2
1,6245	-46,5	10,9
1,625	-47,6	10,5
1,6255	-46,1	10,3
1,626	-42,1	10,6
1,6265	-36,1	11,2
1,627	-28,8	11,7
1,6275	-21,0	12,0
1,628	-13,7	11,9
1,6285	-7,8	11,7
1,629	-3,3	11,4
1,6295	0,7	11,4
1,63	4,8	11,6
1,6305	9,0	12,0
1,631	12,9	12,9
1,6315	16,7	14,3
1,632	20,8	15,8
1,6325	25,3	16,9
1,633	29,4	17,2
1,6335	32,3	16,5
1,634	33,0	15,3
1,6345	31,6	14,0
1,635	28,8	12,9
1,6355	25,4	11,9
1,636	21,9	11,0
1,6365	18,3	10,2
1,637	14,8	9,5
1,6375	11,8	9,2
1,638	9,9	9,1
1,6385	8,7	9,2
1,639	7,4	9,5
1,6395	5,6	9,7
1,64	3,1	9,6
1,6405	0,7	9,2
1,641	-1,2	8,9
1,6415	-2,6	8,8
1,642	-3,7	9,1
1,6425	-4,3	9,8
1,643	-4,1	10,6
1,6435	-2,8	11,4
1,644	-0,9	12,3
1,6445	1,0	12,9
1,645	2,2	13,3
1,6455	2,7	13,3
1,646	2,8	12,7
1,6465	2,9	11,8
1,647	3,1	10,5
1,6475	3,0	9,2
1,648	2,2	8,0
1,6485	0,7	7,3
1,649	-0,8	7,5
1,6495	-1,7	8,3
1,65	-1,9	9,4
1,6505	-1,5	10,3
1,651	-0,5	10,7
1,6515	0,8	10,8
1,652	2,4	10,8
1,6525	4,0	10,6
1,653	5,4	10,3
1,6535	6,7	9,8
1,654	8,0	9,0
1,6545	9,7	8,4
1,655	11,6	8,2
1,6555	13,4	8,5
1,656	14,9	9,1
1,6565	15,6	9,6
1,657	15,3	9,8
1,6575	14,7	9,8
1,658	14,3	9,8
1,6585	14,3	10,2
1,659	14,2	11,1
1,6595	13,7	12,4
1,66	12,6	13,7
1,6605	10,8	14,9
1,661	8,8	15,6
1,6615	6,8	15,8
1,662	4,9	15,3
1,6625	3,3	14,4
1,663	1,9	13,5
1,6635	0,9	13,0
1,664	0,7	13,2
1,6645	0,9	14,2
1,665	0,8	15,6
1,6655	-0,1	16,9
1,666	-1,8	17,6
1,6665	-3,7	17,7
1,667	-5,3	17,1
1,6675	-6,7	16,1
1,668	-7,9	15,1
1,6685	-9,2	14,3
1,669	-10,0	13,7
1,6695	-10,2	13,4
1,67	-9,7	13,4
1,6705	-8,7	13,6
1,671	-7,3	13,8
1,6715	-5,8	14,2
1,672	-4,6	14,7
1,6725	-3,9	15,3
1,673	-3,5	15,6
1,6735	-2,6	15,6
1,674	-1,0	15,2
1,6745	1,1	14,7
1,675	3,1	14,6
1,6755	4,7	15,0
1,676	6,2	15,9
1,6765	7,8	17,1
1,677	9,3	18,2
1,6775	10,9	19,2
1,678	12,8	19,8
1,6785	15,4	19,6
1,679	19,5	18,8
1,6795	26,0	17,6
1,68	34,9	16,1
1,6805	45,0	14,7
1,681	54,3	13,4
1,6815	61,1	12,4
1,682	64,8	11,8
1,6825	65,2	11,5
1,683	62,8	11,5
1,6835	57,9	12,0
1,684	51,3	12,5
1,6845	43,3	12,8
1,685	34,3	12,7
1,6855	25,8	12,2
1,686	18,5	11,5
1,6865	13,2	10,7
1,687	9,5	9,9
1,6875	7,2	9,3
1,688	5,9	9,0
1,6885	5,7	9,3
1,689	6,8	9,8
1,6895	9,1	10,4
1,69	12,5	10,8
1,6905	16,2	11,0
1,691	19,3	11,0
1,6915	20,8	11,1
1,692	20,0	11,6
1,6925	17,3	12,9
1,693	13,7	14,7
1,6935	10,3	16,5
1,694	7,3	17,7
1,6945	5,3	17,9
1,695	4,9	17,3
1,6955	7,4	16,2
1,696	13,5	15,0
1,6965	22,4	14,1
1,697	32,0	13,5
1,6975	39,7	13,5
1,698	43,7	14,3
1,6985	43,6	15,3
1,699	40,5	16,2
1,6995	36,0	16,6
1,7	31,2	16,4
1,7005	26,8	15,7
1,701	22,8	14,9
1,7015	18,7	14,4
1,702	14,2	14,1
1,7025	10,0	13,8
1,703	7,1	13,3
1,7035	6,0	12,4
1,704	6,5	11,5
1,7045	8,3	10,8
1,705	11,2	10,6
1,7055	14,3	10,8
1,706	16,2	11,3
1,7065	15,9	11,9
1,707	13,2	12,6
1,7075	8,3	13,4
1,708	1,2	14,3
1,7085	-7,7	15,2
1,709	-17,4	16,2
1,7095	-26,5	17,1
1,71	-33,4	17,9
1,7105	-37,5	18,3
1,711	-39,1	18,4
1,7115	-38,5	18,2
1,712	-36,3	17,7
1,7125	-33,6	17,0
1,713	-31,0	16,2
1,7135	-28,5	15,1
1,714	-24,7	13,9
1,7145	-19,2	12,9
1,715	-12,1	12,3
1,7155	-3,8	12,1
1,716	5,4	12,1
1,7165	14,8	11,9
1,717	23,3	11,2
1,7175	29,4	9,8
1,718	33,1	8,2
1,7185	35,3	6,5
1,719	37,5	5,2
1,7195	39,7	4,3
1,72	40,6	3,9
1,7205	39,1	4,3
1,721	35,1	5,2
1,7215	29,1	6,3
1,722	22,3	7,4
1,7225	16,3	8,3
1,723	12,4	8,9
1,7235	10,8	9,1
1,724	11,3	9,1
1,7245	13,0	9,0
1,725	15,0	9,1
1,7255	16,1	9,6
1,726	15,5	10,5
1,7265	12,9	11,5
1,727	9,0	12,6
1,7275	4,8	13,7
1,728	1,2	14,4
1,7285	-1,3	14,9
1,729	-2,5	14,7
1,7295	-2,9	13,8
1,73	-3,2	12,3
1,7305	-3,5	10,7
1,731	-3,7	9,5
1,7315	-3,6	8,9
1,732	-3,1	8,7
1,7325	-2,1	8,8
1,733	-1,0	9,1
1,7335	0,3	9,8
1,734	1,5	10,6
1,7345	2,7	11,0
1,735	4,2	11,0
1,7355	6,2	10,8
1,736	8,8	10,4
1,7365	11,7	10,0
1,737	14,0	9,5
1,7375	15,6	9,1
1,738	16,4	9,4
1,7385	16,4	10,4
1,739	15,6	11,5
1,7395	14,6	12,4
1,74	13,9	13,0
1,7405	13,7	13,4
1,741	13,8	13,9
1,7415	13,4	14,4
1,742	12,2	15,0
1,7425	10,0	15,7
1,743	6,7	16,3
1,7435	2,3	16,8
1,744	-2,8	17,0
1,7445	-8,2	16,6
1,745	-12,9	15,4
1,7455	-16,4	13,4
1,746	-18,6	11,1
1,7465	-19,6	9,1
1,747	-19,5	7,9
1,7475	-18,5	7,9
1,748	-17,0	8,7
1,7485	-15,4	9,7
1,749	-13,5	10,3
1,7495	-9,9	10,3
1,75	-1,9	9,7
1,7505	12,2	8,7
1,751	31,1	7,4
1,7515	50,8	6,1
1,752	67,2	5,0
1,7525	77,5	4,1
1,753	80,6	3,7
1,7535	77,0	3,8
1,754	67,8	4,4
1,7545	54,6	5,1
1,755	38,4	5,8
1,7555	20,5	6,3
1,756	2,2	6,8
1,7565	-15,0	7,3
1,757	-29,7	7,8
1,7575	-40,9	8,5
1,758	-48,2	9,4
1,7585	-51,6	10,4
1,759	-51,7	11,5
1,7595	-49,2	12,5
1,76	-44,8	13,4
1,7605	-38,8	14,3
1,761	-31,7	15,0
1,7615	-23,7	15,4
1,762	-15,7	15,0
1,7625	-8,6	13,8
1,763	-2,8	12,2
1,7635	2,0	10,4
1,764	6,1	8,8
1,7645	9,4	7,6
1,765	11,4	7,2
1,7655	11,6	7,4
1,766	10,6	8,2
1,7665	9,3	9,1
1,767	8,6	9,9
1,7675	9,0	10,7
1,768	9,8	11,2
1,7685	10,6	11,2
1,769	11,0	10,7
1,7695	11,3	9,7
1,77	12,0	8,6
1,7705	13,3	8,0
1,771	14,9	8,1
1,7715	16,3	8,8
1,772	17,1	9,6
1,7725	17,5	10,4
1,773	17,6	10,9
1,7735	17,5	11,2
1,774	17,0	11,2
1,7745	15,8	11,0
1,775	14,0	11,1
1,7755	11,8	11,7
1,776	9,6	12,6
1,7765	7,8	13,4
1,777	6,4	13,9
1,7775	5,8	14,0
1,778	6,1	13,7
1,7785	7,4	13,2
1,779	9,3	12,5
1,7795	10,7	11,6
1,78	11,2	10,5
1,7805	10,8	9,3
1,781	9,5	8,2
1,7815	7,3	7,7
1,782	4,5	7,9
1,7825	1,5	8,7
1,783	-1,0	9,7
1,7835	-2,9	10,6
1,784	-4,5	11,3
1,7845	-6,2	11,8
1,785	-8,1	12,4
1,7855	-9,8	12,8
1,786	-10,1	13,2
1,7865	-7,8	13,6
1,787	-2,8	14,2
1,7875	3,5	15,1
1,788	9,4	15,9
1,7885	13,5	16,4
1,789	15,3	16,3
1,7895	15,4	15,8
1,79	14,4	15,1
1,7905	12,1	14,5
1,791	7,8	14,2
1,7915	1,3	14,4
1,792	-6,7	15,1
1,7925	-14,4	16,3
1,793	-20,8	17,8
1,7935	-25,2	19,4
1,794	-27,8	20,6
1,7945	-28,8	21,0
1,795	-28,3	20,6
1,7955	-25,4	19,4
1,796	-20,3	18,2
1,7965	-13,6	17,1
1,797	-6,3	16,2
1,7975	0,9	15,2
1,798	7,1	14,1
1,7985	10,7	12,8
1,799	11,1	11,4
1,7995	8,4	10,4
1,8	4,0	9,9
1,8005	-0,9	9,7
1,801	-5,3	9,4
1,8015	-8,8	8,9
1,802	-11,1	8,7
1,8025	-11,8	9,1
1,803	-11,1	10,2
1,8035	-9,9	11,6
1,804	-8,5	13,0
1,8045	-6,5	14,0
1,805	-3,3	14,7
1,8055	1,0	15,0
1,806	5,8	15,1
1,8065	11,1	15,0
1,807	16,3	14,7
1,8075	20,3	14,1
1,808	22,3	13,3
1,8085	22,1	12,4
1,809	20,2	11,9
1,8095	17,0	11,9
1,81	12,7	12,5
1,8105	7,2	13,5
1,811	1,2	14,6
1,8115	-4,3	15,4
1,812	-8,5	15,6
1,8125	-10,9	15,3
1,813	-11,7	14,4
1,8135	-11,4	13,3
1,814	-10,5	12,0
1,8145	-10,0	11,0
1,815	-10,1	10,3
1,8155	-10,6	10,2
1,816	-11,3	10,3
1,8165	-11,6	10,9
1,817	-11,1	11,7
1,8175	-9,5	12,3
1,818	-6,9	12,7
1,8185	-3,8	12,5
1,819	-0,5	12,0
1,8195	2,1	11,4
1,82	3,8	11,2
1,8205	4,7	11,3
1,821	5,3	11,7
1,8215	6,3	12,4
1,822	8,0	13,0
1,8225	10,8	13,3
1,823	15,1	13,0
1,8235	20,2	12,3
1,824	25,1	11,4
1,8245	28,8	10,4
1,825	31,0	9,8
1,8255	32,3	9,5
1,826	33,5	9,5
1,8265	34,8	9,5
1,827	35,3	9,3
1,8275	34,1	9,1
1,828	31,5	9,0
1,8285	28,3	9,0
1,829	25,4	9,4
1,8295	22,7	10,0
1,83	19,8	11,0
1,8305	16,7	12,4
1,831	12,9	14,2
1,8315	8,4	16,1
1,832	3,7	17,8
1,8325	-0,9	18,8
1,833	-5,5	18,7
1,8335	-9,7	17,3
1,834	-12,3	15,2
1,8345	-12,0	13,1
1,835	-8,6	11,4
1,8355	-3,5	10,2
1,836	1,5	9,3
1,8365	5,4	8,7
1,837	7,8	8,5
1,8375	8,7	8,6
1,838	8,5	9,2
1,8385	7,9	10,0
1,839	8,3	11,1
1,8395	10,3	12,1
1,84	14,2	13,1
1,8405	19,3	13,8
1,841	24,3	14,1
1,8415	27,4	14,2
1,842	27,2	14,1
1,8425	23,2	14,0
1,843	16,3	13,9
1,8435	7,7	13,8
1,844	-1,4	13,6
1,8445	-10,7	13,5
1,845	-20,2	13,2
1,8455	-29,6	12,8
1,846	-38,1	12,7
1,8465	-45,0	12,9
1,847	-49,6	13,5
1,8475	-51,0	14,3
1,848	-49,3	15,3
1,8485	-44,6	16,0
1,849	-37,6	16,5
1,8495	-28,9	16,8
1,85	-18,9	16,8
1,8505	-8,3	16,8
1,851	2,0	16,3
1,8515	11,0	15,6
1,852	17,9	14,8
1,8525	21,8	14,2
1,853	22,6	13,9
1,8535	20,4	14,0
1,854	16,1	14,3
1,8545	10,0	14,8
1,855	2,8	15,5
1,8555	-4,8	16,3
1,856	-11,9	16,8
1,8565	-17,8	16,6
1,857	-22,0	15,8
1,8575	-23,7	14,7
1,858	-22,5	13,9
1,8585	-19,0	13,5
1,859	-14,5	13,3
1,8595	-10,1	12,8
1,86	-6,2	12,1
1,8605	-2,4	11,3
1,861	1,6	10,7
1,8615	6,3	10,7
1,862	11,7	11,1
1,8625	17,0	11,9
1,863	21,5	12,7
1,8635	24,6	13,4
1,864	25,8	13,9
1,8645	25,3	14,6
1,865	23,5	15,7
1,8655	21,0	16,9
1,866	18,6	18,2
1,8665	16,6	19,5
1,867	15,0	20,6
1,8675	13,8	21,3
1,868	13,0	21,3
1,8685	12,9	20,7
1,869	14,1	19,8
1,8695	17,1	18,6
1,87	21,4	17,4
1,8705	25,8	16,6
1,871	29,0	16,7
1,8715	30,2	17,9
1,872	30,0	19,5
1,8725	29,3	20,8
1,873	29,3	21,1
1,8735	30,8	20,5
1,874	34,6	19,4
1,8745	40,0	18,0
1,875	45,1	16,7
1,8755	47,6	15,9
1,876	47,0	15,9
1,8765	43,4	16,7
1,877	36,9	17,6
1,8775	27,8	18,3
1,878	16,0	18,8
1,8785	2,0	18,7
1,879	-13,6	18,1
1,8795	-29,4	17,1
1,88	-43,9	15,8
1,8805	-55,1	14,5
1,881	-62,1	13,4
1,8815	-65,3	12,6
1,882	-65,0	12,3
1,8825	-61,4	12,3
1,883	-54,1	12,7
1,8835	-43,9	13,3
1,884	-32,3	13,8
1,8845	-20,8	14,2
1,885	-10,1	14,5
1,8855	-0,1	14,7
1,886	9,3	15,1
1,8865	17,5	15,4
1,887	23,5	15,7
1,8875	26,8	15,9
1,888	27,8	16,1
1,8885	27,1	16,4
1,889	25,1	16,7
1,8895	22,5	17,0
1,89	20,5	16,9
1,8905	20,1	16,5
1,891	22,1	16,0
1,8915	25,6	15,6
1,892	29,5	15,4
1,8925	32,6	15,6
1,893	34,3	16,0
1,8935	34,4	16,4
1,894	33,2	16,6
1,8945	30,8	16,7
1,895	27,7	16,5
1,8955	24,5	16,0
1,896	21,7	15,5
1,8965	19,5	15,2
1,897	17,4	15,0
1,8975	14,4	15,0
1,898	10,1	14,9
1,8985	4,9	14,4
1,899	-0,2	13,8
1,8995	-4,9	13,3
1,9	-8,9	13,3
1,9005	-12,2	13,8
1,901	-14,6	14,3
1,9015	-16,3	14,6
1,902	-18,0	14,5
1,9025	-19,8	14,4
1,903	-21,2	14,5
1,9035	-21,6	15,0
1,904	-20,7	15,7
1,9045	-18,8	16,5
1,905	-16,8	17,2
1,9055	-16,1	17,5
1,906	-17,0	17,5
1,9065	-18,8	17,2
1,907	-20,6	16,9
1,9075	-21,3	17,1
1,908	-20,7	17,8
1,9085	-19,5	18,8
1,909	-18,4	19,4
1,9095	-17,3	19,5
1,91	-15,4	19,3
1,9105	-12,3	19,2
1,911	-8,3	19,2
1,9115	-4,2	19,2
1,912	0,2	18,7
1,9125	4,8	17,6
1,913	9,4	15,8
1,9135	12,9	14,0
1,914	14,6	12,5
1,9145	14,4	11,7
1,915	13,3	11,5
1,9155	12,1	11,8
1,916	11,3	12,4
1,9165	11,4	13,1
1,917	12,8	13,6
1,9175	16,1	13,8
1,918	21,4	13,8
1,9185	27,8	13,5
1,919	33,4	13,1
1,9195	37,1	12,7
1,92	38,3	12,4
1,9205	36,9	12,2
1,921	33,6	12,3
1,9215	29,0	12,7
1,922	23,8	13,4
1,9225	18,4	14,2
1,923	13,4	14,6
1,9235	9,3	14,8
1,924	6,8	14,6
1,9245	6,1	14,4
1,925	6,9	14,3
1,9255	8,7	14,5
1,926	11,1	14,8
1,9265	13,6	15,2
1,927	16,1	15,6
1,9275	18,4	15,9
1,928	20,7	16,3
1,9285	23,0	16,6
1,929	25,4	16,5
1,9295	27,8	16,0
1,93	30,0	15,1
1,9305	31,1	14,2
1,931	30,5	13,3
1,9315	28,3	12,7
1,932	25,2	12,4
1,9325	22,3	12,4
1,933	19,7	12,7
1,9335	17,0	13,1
1,934	14,3	13,2
1,9345	12,3	13,2
1,935	11,3	13,0
1,9355	11,0	12,9
1,936	10,7	13,0
1,9365	10,2	13,1
1,937	9,3	13,3
1,9375	8,4	14,0
1,938	7,6	14,9
1,9385	6,6	16,0
1,939	4,8	16,9
1,9395	1,9	17,3
1,94	-1,9	17,1
1,9405	-6,0	16,2
1,941	-9,6	15,3
1,9415	-12,4	14,7
1,942	-14,0	14,7
1,9425	-13,5	15,3
1,943	-11,1	16,3
1,9435	-7,3	17,0
1,944	-3,4	17,4
1,9445	0,2	17,3
1,945	3,3	17,0
1,9455	6,4	16,6
1,946	9,5	16,2
1,9465	12,1	15,6
1,947	13,3	15,1
1,9475	12,7	15,0
1,948	10,4	15,5
1,9485	7,4	16,6
1,949	4,3	18,1
1,9495	1,5	19,4
1,95	-0,6	20,3
1,9505	-1,7	20,6
1,951	-1,8	20,5
1,9515	-1,2	19,9
1,952	-0,6	19,0
1,9525	-0,8	18,0
1,953	-1,8	17,2
1,9535	-3,5	17,0
1,954	-5,6	17,2
1,9545	-8,3	17,6
1,955	-11,7	17,8
1,9555	-14,7	17,9
1,956	-16,2	17,7
1,9565	-15,4	17,3
1,957	-12,7	17,0
1,9575	-9,4	16,7
1,958	-6,9	16,4
1,9585	-5,7	16,1
1,959	-5,7	16,0
1,9595	-5,6	16,3
1,96	-4,1	16,8
1,9605	-0,5	17,3
1,961	4,8	17,7
1,9615	10,4	17,8
1,962	15,1	18,0
1,9625	17,7	18,4
1,963	17,4	19,0
1,9635	14,1	19,8
1,964	8,3	20,4
1,9645	0,4	20,9
1,965	-8,9	21,3
1,9655	-17,8	21,6
1,966	-24,8	21,8
1,9665	-29,1	21,6
1,967	-31,7	20,9
1,9675	-33,8	19,6
1,968	-35,8	17,9
1,9685	-36,8	16,5
1,969	-36,0	15,5
1,9695	-33,3	14,8
1,97	-29,7	14,4
1,9705	-26,1	14,2
1,971	-21,8	14,2
1,9715	-15,6	14,5
1,972	-6,9	15,0
1,9725	3,2	15,6
1,973	12,8	15,9
1,9735	20,3	15,8
1,974	24,6	15,4
1,9745	25,6	14,8
1,975	24,5	13,9
1,9755	23,1	13,1
1,976	22,3	12,3
1,9765	22,3	12,0
1,977	22,3	12,2
1,9775	22,4	12,8
1,978	22,6	13,7
1,9785	23,8	14,7
1,979	27,4	15,8
1,9795	34,2	17,0
1,98	43,2	18,3
1,9805	51,3	19,4
1,981	55,8	19,9
1,9815	55,5	19,9
1,982	50,5	19,7
1,9825	41,4	19,3
1,983	28,7	19,0
1,9835	13,5	18,8
1,984	-2,3	18,9
1,9845	-17,1	19,4
1,985	-29,8	19,8
1,9855	-39,8	19,7
1,986	-46,4	19,0
1,9865	-50,0	18,0
1,987	-51,6	17,1
1,9875	-52,1	16,6
1,988	-51,5	16,4
1,9885	-49,4	16,8
1,989	-45,6	17,4
1,9895	-40,2	18,3
1,99	-33,7	18,9
1,9905	-26,8	19,1
1,991	-20,3	18,9
1,9915	-15,1	18,7
1,992	-11,9	18,4
1,9925	-10,3	18,3
1,993	-8,9	18,3
1,9935	-6,3	18,5
1,994	-1,9	18,8
1,9945	3,2	19,2
1,995	7,7	19,6
1,9955	10,7	19,9
1,996	11,7	20,1
1,9965	10,6	20,1
1,997	7,9	19,9
1,9975	4,3	19,4
1,998	-0,4	18,8
1,9985	-6,6	18,0
1,999	-14,7	17,2
1,9995	-23,7	16,3
2	-32,0	15,3
2,0005	-37,8	14,6
2,001	-40,5	14,3
2,0015	-39,7	14,2
2,002	-35,0	14,3
2,0025	-26,8	14,2
2,003	-16,2	13,9
2,0035	-5,0	13,5
2,004	6,1	13,1
2,0045	16,8	12,8
2,005	26,4	12,8
2,0055	33,6	13,1
2,006	37,2	13,7
2,0065	37,5	14,3
2,007	36,0	14,7
2,0075	34,4	14,9
2,008	33,3	14,8
2,0085	32,7	14,9
2,009	32,0	15,5
2,0095	30,8	16,6
2,01	28,9	18,1
2,0105	26,4	19,8
2,011	24,1	21,3
2,0115	23,0	22,3
2,012	23,0	22,6
2,0125	23,4	22,3
2,013	23,7	21,6
2,0135	23,7	20,8
2,014	23,3	19,9
2,0145	21,9	19,3
2,015	19,1	19,3
2,0155	15,0	19,7
2,016	10,3	20,2
2,0165	6,6	20,5
2,017	4,9	20,4
2,0175	5,5	19,7
2,018	7,4	18,2
2,0185	9,6	16,2
2,019	11,0	14,4
2,0195	11,0	13,4
2,02	9,5	13,7
2,0205	6,8	14,7
2,021	3,3	15,9
2,0215	-0,5	16,5
2,022	-4,0	16,3
2,0225	-5,9	15,6
2,023	-5,3	14,6
2,0235	-2,5	13,7
2,024	1,7	12,9
2,0245	5,7	12,4
2,025	8,3	12,1
2,0255	9,4	12,1
2,026	9,3	12,3
2,0265	9,0	12,7
2,027	9,0	13,4
2,0275	9,7	14,4
2,028	10,9	15,4
2,0285	12,0	16,4
2,029	12,2	17,6
2,0295	11,0	18,6
2,03	8,4	18,9
2,0305	4,5	18,2
2,031	-0,1	16,5
2,0315	-4,8	14,9
2,032	-8,8	13,9
2,0325	-11,5	13,8
2,033	-12,8	14,2
2,0335	-13,2	14,7
2,034	-12,4	15,0
2,0345	-10,4	15,2
2,035	-7,6	14,9
2,0355	-5,3	14,1
2,036	-4,5	12,9
2,0365	-5,3	11,8
2,037	-7,2	10,8
2,0375	-9,5	10,4
2,038	-11,6	10,4
2,0385	-12,9	10,9
2,039	-13,1	11,7
2,0395	-12,2	12,3
2,04	-10,4	12,4
2,0405	-7,9	12,2
2,041	-5,0	11,6
2,0415	-2,3	11,3
2,042	0,1	11,3
2,0425	2,2	11,9
2,043	4,5	12,7
2,0435	6,9	13,3
2,044	9,2	13,7
2,0445	11,4	13,5
2,045	13,3	12,9
2,0455	14,7	12,4
2,046	15,0	12,3
2,0465	13,6	12,4
2,047	10,2	12,8
2,0475	5,3	12,9
2,048	-0,2	12,7
2,0485	-5,2	12,0
2,049	-9,1	10,8
2,0495	-11,6	9,6
2,05	-13,0	8,8
2,0505	-13,8	8,3
2,051	-14,1	8,3
2,0515	-14,0	8,7
2,052	-13,4	9,3
2,0525	-11,8	10,1
2,053	-8,4	10,8
2,0535	-2,8	11,3
2,054	4,1	11,8
2,0545	10,2	12,2
2,055	14,4	12,5
2,0555	16,6	12,7
2,056	17,1	12,8
2,0565	16,4	12,7
2,057	14,1	12,4
2,0575	9,6	12,0
2,058	3,1	11,8
2,0585	-4,4	11,7
2,059	-11,7	11,6
2,0595	-17,8	11,6
2,06	-22,3	11,7
2,0605	-25,0	11,8
2,061	-25,5	11,8
2,0615	-24,2	11,8
2,062	-21,5	11,6
2,0625	-18,1	11,5
2,063	-14,3	11,6
2,0635	-10,6	11,6
2,064	-6,7	11,3
2,0645	-1,9	10,8
2,065	3,9	10,3
2,0655	10,4	10,1
2,066	16,6	10,0
2,0665	21,9	9,8
2,067	26,4	9,4
2,0675	31,3	8,9
2,068	37,5	8,5
2,0685	45,2	8,5
2,069	53,2	8,7
2,0695	59,6	8,8
2,07	62,9	8,8
2,0705	62,6	8,6
2,071	59,1	8,4
2,0715	53,0	8,4
2,072	44,7	8,5
2,0725	33,6	9,0
2,073	19,9	9,9
2,0735	5,7	11,1
2,074	-6,5	12,3
2,0745	-15,1	13,2
2,075	-20,8	13,5
2,0755	-25,3	13,4
2,076	-29,7	13,3
2,0765	-33,8	13,6
2,077	-36,8	14,1
2,0775	-37,7	14,8
2,078	-36,7	15,3
2,0785	-33,8	15,4
2,079	-29,5	14,8
2,0795	-24,2	13,6
2,08	-19,0	12,1
2,0805	-14,7	10,5
2,081	-11,1	9,3
2,0815	-7,8	8,8
2,082	-3,2	8,9
2,0825	3,7	9,5
2,083	12,8	10,2
2,0835	22,4	10,5
2,084	30,9	10,5
2,0845	37,4	10,3
2,085	42,4	10,2
2,0855	46,4	10,3
2,086	49,6	10,5
2,0865	51,6	10,7
2,087	51,8	10,7
2,0875	49,8	10,5
2,088	46,2	10,4
2,0885	41,3	10,6
2,089	35,3	11,3
2,0895	28,5	12,1
2,09	21,2	12,8
2,0905	13,8	13,4
2,091	6,1	14,0
2,0915	-1,9	14,7
2,092	-10,0	15,4
2,0925	-18,1	16,2
2,093	-26,4	17,0
2,0935	-34,9	17,7
2,094	-42,7	18,3
2,0945	-48,4	18,6
2,095	-50,8	18,5
2,0955	-49,1	17,8
2,096	-43,3	16,8
2,0965	-33,8	15,8
2,097	-22,0	15,1
2,0975	-9,8	14,8
2,098	0,8	14,8
2,0985	8,6	15,0
2,099	13,3	15,1
2,0995	15,4	15,0
2,1	15,3	14,8
2,1005	13,1	14,4
2,101	9,2	14,0
2,1015	4,3	13,5
2,102	-0,6	13,1
2,1025	-4,8	13,0
2,103	-8,2	13,2
2,1035	-10,8	13,8
2,104	-12,8	14,8
2,1045	-14,3	16,2
2,105	-15,5	17,5
2,1055	-15,8	18,8
2,106	-14,9	19,8
2,1065	-12,7	20,3
2,107	-9,4	20,4
2,1075	-5,8	20,4
2,108	-2,8	20,5
2,1085	-0,8	20,6
2,109	-0,1	20,7
2,1095	-0,0	20,7
2,11	-0,2	20,6
2,1105	-0,6	20,4
2,111	-0,9	20,1
2,1115	0,4	19,7
2,112	5,3	18,9
2,1125	14,5	17,8
2,113	25,8	16,7
2,1135	36,0	15,6
2,114	42,6	14,9
2,1145	44,6	14,8
2,115	41,9	15,4
2,1155	35,2	16,4
2,116	25,4	17,4
2,1165	13,0	17,9
2,117	-1,1	18,0
2,1175	-15,9	17,7
2,118	-30,0	17,3
2,1185	-41,6	16,9
2,119	-49,8	16,9
2,1195	-54,0	17,2
2,12	-54,3	17,7
2,1205	-51,7	18,3
2,121	-47,0	19,0
2,1215	-41,3	20,1
2,122	-35,7	21,6
2,1225	-30,7	23,1
2,123	-26,2	23,8
2,1235	-22,0	23,4
2,124	-18,6	22,3
2,1245	-16,2	20,9
2,125	-14,8	19,9
2,1255	-14,4	19,5
2,126	-15,2	19,6
2,1265	-17,5	19,8
2,127	-21,2	19,9
2,1275	-25,4	19,8
2,128	-29,4	19,8
2,1285	-32,4	19,8
2,129	-33,6	19,8
2,1295	-32,6	19,3
2,13	-29,6	18,3
2,1305	-25,8	16,9
2,131	-22,3	15,7
2,1315	-20,2	15,0
2,132	-19,6	15,1
2,1325	-18,9	15,6
2,133	-16,3	16,1
2,1335	-10,4	16,3
2,134	-1,6	15,8
2,1345	8,4	14,7
2,135	17,7	13,4
2,1355	24,9	12,4
2,136	29,0	12,0
2,1365	30,1	12,0
2,137	28,8	12,4
2,1375	25,8	12,8
2,138	20,9	13,2
2,1385	14,1	13,7
2,139	5,6	14,5
2,1395	-3,7	15,6
2,14	-12,4	16,9
2,1405	-19,8	18,0
2,141	-25,7	18,8
2,1415	-30,1	18,8
2,142	-32,6	18,2
2,1425	-32,7	17,0
2,143	-30,5	15,6
2,1435	-26,4	14,3
2,144	-21,6	13,5
2,1445	-17,2	13,2
2,145	-13,5	13,2
2,1455	-10,2	13,2
2,146	-6,7	13,1
2,1465	-2,8	13,1
2,147	1,1	13,2
2,1475	4,6	13,5
2,148	7,4	14,1
2,1485	9,2	14,7
2,149	10,0	15,1
2,1495	10,4	15,4
2,15	11,2	15,6
2,1505	13,5	15,6
2,151	17,8	15,3
2,1515	22,8	14,7
2,152	27,4	13,8
2,1525	30,7	12,7
2,153	32,2	11,9
2,1535	32,2	11,3
2,154	31,1	11,0
2,1545	29,9	11,2
2,155	30,3	11,7
2,1555	33,3	12,6
2,156	38,3	13,7
2,1565	43,2	14,7
2,157	46,2	15,5
2,1575	45,8	15,9
2,158	41,8	16,2
2,1585	34,4	16,5
2,159	25,3	17,0
2,1595	15,8	17,7
2,16	6,6	18,2
2,1605	-2,4	18,3
2,161	-10,8	17,8
2,1615	-18,2	17,1
2,162	-23,8	16,0
2,1625	-27,3	14,9
2,163	-28,3	14,0
2,1635	-27,2	13,3
2,164	-24,1	12,9
2,1645	-19,5	12,7
2,165	-13,3	12,9
2,1655	-5,9	13,6
2,166	2,4	14,2
2,1665	10,8	14,4
2,167	18,4	13,8
2,1675	24,4	12,7
2,168	28,0	11,2
2,1685	29,5	9,9
2,169	29,6	9,2
2,1695	29,0	9,0
2,17	27,6	9,3
2,1705	24,9	10,2
2,171	20,4	11,5
2,1715	14,3	13,1
2,172	7,3	14,6
2,1725	0,4	15,7
2,173	-5,5	16,3
2,1735	-10,2	16,4
2,174	-14,6	16,4
2,1745	-19,6	16,4
2,175	-25,1	16,5
2,1755	-30,3	16,7
2,176	-34,1	16,9
2,1765	-36,3	17,3
2,177	-36,8	17,6
2,1775	-36,2	17,6
2,178	-34,8	17,2
2,1785	-32,2	16,3
2,179	-28,6	14,9
2,1795	-24,3	13,3
2,18	-19,6	11,7
2,1805	-15,1	10,3
2,181	-11,0	9,2
2,1815	-7,4	8,5
2,182	-4,8	8,3
2,1825	-3,4	8,5
2,183	-3,1	9,3
2,1835	-2,7	10,3
2,184	-0,6	11,3
2,1845	3,8	11,8
2,185	10,0	11,9
2,1855	16,5	11,7
2,186	22,2	11,3
2,1865	26,3	10,8
2,187	28,2	10,4
2,1875	27,5	10,3
2,188	24,5	10,7
2,1885	19,8	11,4
2,189	14,1	12,4
2,1895	8,1	13,3
2,19	2,7	13,9
2,1905	-1,3	14,0
2,191	-4,1	14,0
2,1915	-6,1	13,9
2,192	-7,8	14,0
2,1925	-9,3	14,2
2,193	-10,8	14,7
2,1935	-12,2	15,0
2,194	-13,3	15,2
2,1945	-13,7	14,9
2,195	-13,7	14,4
2,1955	-13,6	13,8
2,196	-14,0	13,2
2,1965	-15,2	12,8
2,197	-16,9	12,6
2,1975	-18,7	12,7
2,198	-21,0	12,8
2,1985	-24,1	12,6
2,199	-27,7	12,1
2,1995	-30,6	11,5
2,2	-31,9	11,1
2,2005	-30,2	11,2
2,201	-23,2	11,5
2,2015	-9,6	11,6
2,202	8,2	11,2
2,2025	25,1	10,6
2,203	37,3	10,1
2,2035	43,7	9,9
2,204	45,1	10,0
2,2045	42,3	10,5
2,205	35,6	11,3
2,2055	25,8	12,5
2,206	14,0	13,9
2,2065	1,3	15,0
2,207	-11,3	15,9
2,2075	-22,8	16,5
2,208	-32,4	17,3
2,2085	-40,0	18,2
2,209	-46,7	18,8
2,2095	-53,3	19,3
2,21	-59,8	19,5
2,2105	-65,2	19,9
2,211	-68,4	20,7
2,2115	-69,2	21,6
2,212	-67,8	22,4
2,2125	-64,5	22,5
2,213	-59,3	21,9
2,2135	-53,1	20,6
2,214	-46,3	18,9
2,2145	-39,2	17,3
2,215	-31,8	16,3
2,2155	-23,9	15,9
2,216	-16,7	16,0
2,2165	-10,9	16,3
2,217	-7,0	16,4
2,2175	-4,5	16,1
2,218	-2,7	15,3
2,2185	-1,4	14,0
2,219	-0,8	12,5
2,2195	-1,0	10,8
2,22	-1,5	9,5
2,2205	-1,9	8,8
2,221	-2,2	8,5
2,2215	-2,2	8,7
2,222	-1,6	9,0
2,2225	0,7	9,7
2,223	5,3	10,7
2,2235	12,6	11,8
2,224	22,2	13,0
2,2245	33,0	14,2
2,225	44,0	15,4
2,2255	53,8	16,3
2,226	61,3	16,6
2,2265	65,6	16,3
2,227	67,1	15,9
2,2275	66,8	15,4
2,228	66,1	14,9
2,2285	65,3	14,3
2,229	63,5	13,4
2,2295	59,4	12,5
2,23	52,4	11,8
2,2305	42,6	11,4
2,231	31,3	11,5
2,2315	19,7	11,8
2,232	8,4	12,6
2,2325	-2,6	13,5
2,233	-12,8	14,4
2,2335	-21,7	15,0
2,234	-29,3	15,1
2,2345	-35,8	14,8
2,235	-41,5	14,0
2,2355	-46,2	12,8
2,236	-49,3	11,3
2,2365	-50,4	10,1
2,237	-49,7	9,3
2,2375	-46,9	9,1
2,238	-42,0	9,3
2,2385	-35,4	9,9
2,239	-28,1	10,7
2,2395	-21,2	11,0
2,24	-16,0	10,8
2,2405	-13,1	10,3
2,241	-11,7	9,5
2,2415	-10,8	8,8
2,242	-9,9	8,3
2,2425	-9,3	8,1
2,243	-8,7	8,5
2,2435	-7,5	9,3
2,244	-5,0	10,1
2,2445	-1,7	10,5
2,245	2,1	10,4
2,2455	6,0	9,9
2,246	10,1	9,3
2,2465	14,2	8,9
2,247	17,6	8,7
2,2475	19,6	8,7
2,248	19,6	8,9
2,2485	17,7	9,3
2,249	14,3	9,8
2,2495	10,1	10,3
2,25	5,8	10,9
2,2505	2,3	11,6
2,251	-0,0	12,4
2,2515	-1,4	13,1
2,252	-2,6	13,6
2,2525	-4,0	13,6
2,253	-5,8	13,3
2,2535	-7,7	13,0
2,254	-9,1	12,7
2,2545	-9,6	12,5
2,255	-9,0	12,2
2,2555	-7,2	11,9
2,256	-4,8	11,7
2,2565	-2,3	11,6
2,257	-0,3	11,3
2,2575	1,2	10,9
2,258	2,7	10,8
2,2585	4,4	10,9
2,259	5,7	11,3
2,2595	5,8	11,8
2,26	3,9	12,2
2,2605	0,5	12,5
2,261	-3,8	12,8
2,2615	-7,8	13,0
2,262	-11,0	13,0
2,2625	-13,6	12,8
2,263	-15,3	12,4
2,2635	-16,2	11,9
2,264	-16,1	11,5
2,2645	-15,1	11,8
2,265	-13,8	12,9
2,2655	-12,0	14,7
2,266	-9,8	16,5
2,2665	-7,2	17,8
2,267	-4,5	18,1
2,2675	-1,9	17,5
2,268	0,4	16,0
2,2685	2,1	14,1
2,269	3,0	12,2
2,2695	3,5	10,5
2,27	4,2	9,5
2,2705	5,2	9,2
2,271	6,4	9,4
2,2715	7,5	9,9
2,272	8,3	10,8
2,2725	8,3	11,9
2,273	7,6	13,3
2,2735	6,7	14,6
2,274	6,3	15,5
2,2745	6,4	15,8
2,275	6,7	15,8
2,2755	6,6	15,9
2,276	6,2	16,1
2,2765	5,5	16,3
2,277	4,6	16,5
2,2775	3,3	16,9
2,278	1,4	17,5
2,2785	-0,8	17,8
2,279	-3,4	17,7
2,2795	-6,3	17,1
2,28	-9,3	16,3
2,2805	-12,4	15,3
2,281	-14,8	14,4
2,2815	-16,3	14,0
2,282	-17,3	14,1
2,2825	-18,1	14,5
2,283	-18,8	15,2
2,2835	-19,0	15,9
2,284	-18,2	16,6
2,2845	-16,5	16,5
2,285	-14,2	15,6
2,2855	-10,8	14,0
2,286	-6,3	12,1
2,2865	-1,7	10,6
2,287	1,8	9,9
2,2875	3,4	10,3
2,288	3,1	11,2
2,2885	1,6	12,3
2,289	-0,3	13,1
2,2895	-2,5	13,6
2,29	-5,1	13,7
2,2905	-8,6	13,3
2,291	-13,3	12,9
2,2915	-18,9	12,7
2,292	-24,6	12,9
2,2925	-29,0	13,7
2,293	-31,1	14,7
2,2935	-30,9	15,7
2,294	-29,4	16,4
2,2945	-27,2	16,7
2,295	-24,2	16,6
2,2955	-20,8	15,9
2,296	-18,1	14,9
2,2965	-17,0	13,4
2,297	-17,8	12,0
2,2975	-19,9	11,2
2,298	-22,3	11,2
2,2985	-23,9	11,8
2,299	-23,7	12,8
2,2995	-20,9	14,0
2,3	-15,4	15,1
2,3005	-8,3	16,0
2,301	-0,5	16,3
2,3015	6,3	15,9
2,302	11,0	15,3
2,3025	13,2	15,2
2,303	13,4	15,8
2,3035	12,9	16,5
2,304	12,3	16,8
2,3045	12,1	16,6
2,305	11,7	16,3
2,3055	11,0	16,4
2,306	10,4	16,9
2,3065	9,6	17,4
2,307	8,2	17,7
2,3075	5,9	18,0
2,308	3,3	18,1
2,3085	1,5	17,9
2,309	1,8	17,4
2,3095	5,3	16,6
2,31	12,2	15,8
2,3105	21,8	15,3
2,311	31,6	15,1
2,3115	38,9	14,9
2,312	41,9	14,5
2,3125	39,9	13,6
2,313	33,0	12,3
2,3135	22,4	10,9
2,314	9,3	9,7
2,3145	-5,0	9,2
2,315	-19,3	9,5
2,3155	-32,3	10,8
2,316	-43,3	12,8
2,3165	-51,5	14,8
2,317	-56,4	16,2
2,3175	-57,8	16,7
2,318	-55,4	16,5
2,3185	-49,6	16,1
2,319	-41,5	15,5
2,3195	-31,8	14,9
2,32	-21,1	14,4
2,3205	-10,4	14,2
2,321	-0,6	14,5
2,3215	7,4	15,1
2,322	13,3	15,7
2,3225	17,2	16,3
2,323	18,9	16,8
2,3235	19,1	17,0
2,324	18,3	16,7
2,3245	17,1	15,7
2,325	15,4	14,5
2,3255	13,2	13,6
2,326	10,3	13,3
2,3265	7,1	13,6
2,327	3,4	14,2
2,3275	-0,8	14,7
2,328	-5,5	15,0
2,3285	-10,4	14,9
2,329	-14,4	14,4
2,3295	-16,8	13,8
2,33	-16,9	13,3
2,3305	-14,4	12,8
2,331	-9,9	12,3
2,3315	-4,5	12,2
2,332	0,7	12,3
2,3325	4,6	12,7
2,333	6,8	13,0
2,3335	7,2	13,3
2,334	6,1	13,6
2,3345	4,3	13,9
2,335	2,8	14,0
2,3355	1,6	14,3
2,336	0,0	14,8
2,3365	-2,5	15,9
2,337	-6,3	17,1
2,3375	-11,2	18,0
2,338	-16,5	18,7
2,3385	-22,2	19,2
2,339	-28,0	19,9
2,3395	-33,4	20,5
2,34	-37,8	20,8
2,3405	-40,9	20,7
2,341	-43,4	20,4
2,3415	-45,1	20,2
2,342	-43,9	19,9
2,3425	-36,9	19,8
2,343	-23,5	19,7
2,3435	-6,7	19,7
2,344	9,0	19,7
2,3445	20,2	19,7
2,345	25,9	19,5
2,3455	26,7	19,0
2,346	23,2	18,2
2,3465	15,9	17,2
2,347	5,0	16,0
2,3475	-8,6	14,8
2,348	-23,5	13,8
2,3485	-38,0	13,3
2,349	-50,4	13,3
2,3495	-59,4	13,8
2,35	-64,3	14,4
2,3505	-65,2	15,0
2,351	-62,7	15,2
2,3515	-57,8	14,8
2,352	-51,5	13,9
2,3525	-44,8	12,9
2,353	-38,1	11,7
2,3535	-31,6	10,7
2,354	-25,4	10,4
2,3545	-19,6	11,0
2,355	-14,6	12,7
2,3555	-10,7	14,8
2,356	-7,4	16,6
2,3565	-4,6	17,6
2,357	-2,7	17,8
2,3575	-2,7	17,8
2,358	-4,8	17,6
2,3585	-7,7	17,6
2,359	-9,8	17,7
2,3595	-10,0	17,9
2,36	-8,4	18,1
2,3605	-5,5	18,2
2,361	-1,8	17,9
2,3615	2,4	17,4
2,362	7,0	16,7
2,3625	11,7	15,9
2,363	16,2	15,4
2,3635	19,7	14,9
2,364	21,3	14,2
2,3645	20,3	13,3
2,365	17,1	12,8
2,3655	12,5	12,7
2,366	7,3	12,6
2,3665	2,0	12,4
2,367	-2,7	12,2
2,3675	-5,9	11,8
2,368	-7,1	11,5
2,3685	-7,1	11,4
2,369	-6,8	11,8
2,3695	-6,7	12,5
2,37	-6,7	13,1
2,3705	-6,4	13,5
2,371	-6,0	13,8
2,3715	-5,7	13,8
2,372	-5,3	13,7
2,3725	-4,8	13,7
2,373	-3,6	14,0
2,3735	-2,0	14,6
2,374	-0,3	15,3
2,3745	1,3	15,8
2,375	3,2	16,0
2,3755	5,7	15,9
2,376	8,8	15,8
2,3765	12,3	15,9
2,377	15,4	16,6
2,3775	17,8	17,6
2,378	19,2	18,7
2,3785	19,7	19,4
2,379	19,4	19,4
2,3795	18,4	18,9
2,38	17,3	17,8
2,3805	17,1	16,3
2,381	18,0	14,8
2,3815	19,2	13,8
2,382	19,3	13,7
2,3825	17,9	14,3
2,383	15,3	15,0
2,3835	12,5	15,3
2,384	10,2	14,9
2,3845	8,1	13,9
2,385	5,5	12,6
2,3855	1,9	11,5
2,386	-2,3	11,3
2,3865	-6,4	11,8
2,387	-9,6	12,8
2,3875	-11,2	13,6
2,388	-11,1	13,9
2,3885	-9,6	14,1
2,389	-6,8	14,1
2,3895	-2,7	14,1
2,39	1,9	14,1
2,3905	5,8	14,0
2,391	8,1	14,0
2,3915	8,3	14,2
2,392	6,9	14,3
2,3925	4,6	14,7
2,393	1,8	15,3
2,3935	-1,0	16,2
2,394	-3,7	17,1
2,3945	-6,4	17,8
2,395	-8,9	17,9
2,3955	-9,4	17,3
2,396	-5,9	16,0
2,3965	2,1	14,4
2,397	12,7	13,0
2,3975	22,9	12,3
2,398	30,5	12,5
2,3985	34,6	13,4
2,399	35,6	14,4
2,3995	34,3	15,1
2,4	30,9	15,3
2,4005	25,0	15,3
2,401	16,4	15,0
2,4015	5,8	14,9
2,402	-5,2	15,1
2,4025	-15,2	15,5
2,403	-23,7	16,0
2,4035	-30,4	16,4
2,404	-35,3	16,6
2,4045	-38,4	16,8
2,405	-39,8	17,1
2,4055	-40,1	17,6
2,406	-38,7	18,2
2,4065	-34,4	18,7
2,407	-26,5	19,1
2,4075	-16,3	19,3
2,408	-5,9	19,4
2,4085	2,8	19,3
2,409	9,3	18,8
2,4095	14,3	18,1
2,41	17,9	17,5
2,4105	19,5	17,3
2,411	18,4	17,4
2,4115	14,6	17,7
2,412	9,2	17,8
2,4125	3,9	17,4
2,413	-0,4	16,6
2,4135	-3,4	15,7
2,414	-4,9	15,0
2,4145	-5,6	14,8
2,415	-5,8	14,8
2,4155	-6,4	15,0
2,416	-8,1	14,8
2,4165	-10,8	14,0
2,417	-14,2	12,7
2,4175	-16,9	11,7
2,418	-17,9	11,5
2,4185	-16,9	12,2
2,419	-14,8	13,3
2,4195	-12,5	14,4
2,42	-10,9	15,5
2,4205	-10,0	16,5
2,421	-9,7	17,7
2,4215	-10,2	19,2
2,422	-11,3	20,8
2,4225	-12,3	22,5
2,423	-12,2	23,7
2,4235	-10,7	24,2
2,424	-8,5	24,0
2,4245	-5,9	23,4
2,425	-3,7	22,7
2,4255	-2,6	22,3
2,426	-3,3	22,0
2,4265	-5,5	21,9
2,427	-8,3	21,8
2,4275	-10,3	21,5
2,428	-10,5	20,8
2,4285	-9,1	20,0
2,429	-6,8	19,1
2,4295	-4,5	18,1
2,43	-2,3	16,9
2,4305	-0,3	15,7
2,431	1,3	14,8
2,4315	2,6	14,2
2,432	3,9	14,0
2,4325	6,1	14,1
2,433	9,3	14,6
2,4335	13,2	15,2
2,434	17,3	15,8
2,4345	21,1	16,3
2,435	23,8	16,6
2,4355	25,4	16,6
2,436	25,7	16,4
2,4365	24,8	16,2
2,437	22,4	16,1
2,4375	18,5	16,2
2,438	13,0	16,8
2,4385	6,5	17,6
2,439	-0,1	18,4
2,4395	-5,9	18,9
2,44	-10,3	18,7
2,4405	-12,9	18,1
2,441	-13,5	17,6
2,4415	-11,9	17,2
2,442	-8,7	17,0
2,4425	-5,3	16,5
2,443	-2,7	15,9
2,4435	-1,3	15,1
2,444	-0,7	14,3
2,4445	0,3	13,6
2,445	2,1	13,3
2,4455	4,8	13,2
2,446	7,9	13,3
2,4465	10,4	13,1
2,447	11,7	12,8
2,4475	11,1	12,8
2,448	9,0	13,7
2,4485	6,8	15,5
2,449	5,6	18,0
2,4495	5,3	20,6
2,45	5,0	22,4
2,4505	4,1	23,0
2,451	3,2	22,5
2,4515	3,3	21,2
2,452	4,6	19,7
2,4525	7,2	18,4
2,453	10,6	17,7
2,4535	14,0	17,5
2,454	16,6	17,4
2,4545	17,6	17,6
2,455	16,8	17,9
2,4555	14,3	18,4
2,456	10,9	19,2
2,4565	7,0	19,6
2,457	2,7	19,6
2,4575	-2,2	19,2
2,458	-7,6	18,8
2,4585	-12,9	18,6
2,459	-16,8	18,3
2,4595	-18,8	18,0
2,46	-19,8	17,7
2,4605	-21,1	17,5
2,461	-23,3	17,6
2,4615	-25,5	17,8
2,462	-26,4	18,0
2,4625	-25,7	17,7
2,463	-24,0	16,8
2,4635	-22,1	15,5
2,464	-20,4	14,4
2,4645	-18,1	13,6
2,465	-12,6	13,4
2,4655	-2,2	13,5
2,466	12,3	13,9
2,4665	27,4	14,3
2,467	39,5	14,3
2,4675	47,1	14,0
2,468	50,4	13,4
2,4685	49,8	12,8
2,469	45,8	12,3
2,4695	38,9	12,1
2,47	29,9	12,3
2,4705	19,2	12,9
2,471	7,5	13,8
2,4715	-3,6	14,9
2,472	-11,4	16,2
2,4725	-13,5	17,7
2,473	-8,4	18,9
2,4735	4,3	19,3
2,474	22,3	18,8
2,4745	41,5	17,8
2,475	57,4	16,6
2,4755	67,3	15,8
2,476	70,8	15,8
2,4765	68,6	16,5
2,477	61,9	17,5
2,4775	52,0	18,9
2,478	39,7	20,6
2,4785	25,3	22,4
2,479	9,6	23,8
2,4795	-6,7	24,4
2,48	-22,8	24,1
2,4805	-37,9	23,1
2,481	-51,6	21,7
2,4815	-62,8	20,3
2,482	-70,3	19,1
2,4825	-72,7	18,1
2,483	-69,7	17,3
2,4835	-62,7	16,5
2,484	-53,3	16,0
2,4845	-42,8	15,7
2,485	-32,1	15,7
2,4855	-22,4	15,6
2,486	-15,5	15,3
2,4865	-12,0	15,0
2,487	-11,4	14,6
2,4875	-12,2	14,4
2,488	-13,3	14,6
2,4885	-14,2	15,1
2,489	-14,5	15,8
2,4895	-13,4	16,4
2,49	-10,5	16,5
2,4905	-6,2	16,3
2,491	-1,3	15,9
2,4915	3,6	15,7
2,492	7,8	15,7
2,4925	10,0	15,9
2,493	9,9	16,3
2,4935	7,7	16,7
2,494	4,0	16,9
2,4945	-0,4	17,0
2,495	-5,1	17,1
2,4955	-9,1	17,3
2,496	-11,9	17,5
2,4965	-13,4	17,8
2,497	-13,7	18,1
2,4975	-13,3	18,3
2,498	-12,6	18,2
2,4985	-11,9	17,9
2,499	-11,3	17,4
2,4995	-10,8	16,9
2,5	-10,6	16,3
2,5005	-9,8	15,8
2,501	-8,3	15,3
2,5015	-6,1	15,1
2,502	-3,4	15,2
2,5025	-0,7	15,4
2,503	2,0	15,4
2,5035	4,7	15,1
2,504	7,3	14,5
2,5045	9,8	13,8
2,505	11,4	13,2
2,5055	11,7	12,9
2,506	10,9	12,9
2,5065	9,6	12,9
2,507	8,4	13,0
2,5075	7,4	13,1
2,508	6,4	13,4
2,5085	5,1	14,0
2,509	3,5	14,8
2,5095	1,6	15,6
2,51	-0,8	16,2
2,5105	-3,4	16,6
2,511	-5,8	16,8
2,5115	-8,0	17,0
2,512	-9,4	17,2
2,5125	-9,8	17,4
2,513	-9,0	17,8
2,5135	-7,5	18,2
2,514	-5,9	18,3
2,5145	-5,2	17,8
2,515	-5,3	17,1
2,5155	-5,2	16,5
2,516	-3,6	16,3
2,5165	0,0	16,4
2,517	5,2	16,7
2,5175	10,9	16,7
2,518	16,5	16,3
2,5185	21,4	15,6
2,519	24,9	14,5
2,5195	26,2	13,4
2,52	25,0	12,5
2,5205	21,3	12,2
2,521	15,9	12,4
2,5215	9,9	12,9
2,522	4,3	13,4
2,5225	-0,2	14,1
2,523	-3,1	14,7
2,5235	-4,1	15,2
2,524	-3,4	15,6
2,5245	-1,2	15,8
2,525	2,1	16,0
2,5255	5,3	16,3
2,526	7,5	16,9
2,5265	8,2	17,6
2,527	8,2	18,5
2,5275	8,2	19,2
2,528	8,7	19,4
2,5285	9,7	19,2
2,529	10,8	18,9
2,5295	12,0	18,8
2,53	12,6	18,8
2,5305	12,3	18,7
2,531	10,7	18,2
2,5315	7,7	17,3
2,532	3,3	16,4
2,5325	-1,8	15,6
2,533	-6,7	14,8
2,5335	-11,5	14,1
2,534	-16,3	13,3
2,5345	-21,3	12,2
2,535	-26,2	10,8
2,5355	-30,2	9,5
2,536	-32,9	8,8
2,5365	-34,1	8,9
2,537	-33,8	9,8
2,5375	-32,1	11,3
2,538	-29,2	13,0
2,5385	-25,4	14,8
2,539	-21,3	16,6
2,5395	-17,3	18,0
2,54	-13,3	18,8
2,5405	-9,1	18,9
2,541	-5,1	18,8
2,5415	-1,7	18,7
2,542	0,6	18,8
2,5425	1,1	18,8
2,543	-0,0	18,5
2,5435	-1,6	17,9
2,544	-2,2	17,0
2,5445	-1,5	16,1
2,545	-0,5	15,3
2,5455	-0,2	14,8
2,546	-1,1	14,3
2,5465	-3,5	13,9
2,547	-6,8	13,5
2,5475	-10,9	12,9
2,548	-14,8	12,5
2,5485	-16,5	12,1
2,549	-14,2	12,0
2,5495	-6,8	11,9
2,55	4,5	11,8
2,5505	17,5	11,8
2,551	29,7	12,0
2,5515	38,9	12,4
2,552	44,7	13,0
2,5525	47,2	13,9
2,553	46,4	14,6
2,5535	42,4	15,1
2,554	35,3	15,2
2,5545	25,3	15,1
2,555	13,5	14,8
2,5555	1,2	14,5
2,556	-9,9	14,2
2,5565	-18,7	13,8
2,557	-25,3	13,3
2,5575	-30,3	12,7
2,558	-34,4	12,2
2,5585	-37,3	11,9
2,559	-37,7	12,1
2,5595	-34,0	12,6
2,56	-26,3	13,3
2,5605	-16,6	14,0
2,561	-7,4	14,6
2,5615	0,0	15,0
2,562	5,3	15,5
2,5625	8,2	15,9
2,563	8,1	15,9
2,5635	5,4	15,3
2,564	0,6	14,1
2,5645	-5,3	12,7
2,565	-12,2	11,7
2,5655	-19,3	11,5
2,566	-25,4	12,2
2,5665	-29,4	13,3
2,567	-30,8	14,3
2,5675	-30,4	15,0
2,568	-28,8	15,2
2,5685	-26,3	14,9
2,569	-22,7	14,2
2,5695	-18,3	13,3
2,57	-14,0	12,4
2,5705	-10,1	11,9
2,571	-6,7	11,6
2,5715	-3,8	11,6
2,572	-1,4	11,8
2,5725	0,6	12,2
2,573	2,1	12,8
2,5735	2,9	13,4
2,574	3,0	13,7
2,5745	2,6	13,7
2,575	2,9	13,7
2,5755	4,7	13,8
2,576	8,3	14,0
2,5765	12,7	14,0
2,577	16,7	13,9
2,5775	19,6	13,6
2,578	21,2	13,3
2,5785	22,0	13,1
2,579	22,4	12,7
2,5795	22,6	12,4
2,58	22,6	12,1
2,5805	22,7	11,8
2,581	22,7	11,4
2,5815	22,4	11,1
2,582	21,7	11,1
2,5825	21,1	11,6
2,583	20,9	12,8
2,5835	20,8	14,2
2,584	19,6	15,5
2,5845	16,8	16,4
2,585	12,8	16,6
2,5855	8,5	16,0
2,586	4,8	14,9
2,5865	1,5	13,8
2,587	-1,8	12,9
2,5875	-5,2	12,6
2,588	-8,8	12,8
2,5885	-12,6	13,6
2,589	-16,6	14,5
2,5895	-20,5	15,3
2,59	-24,1	15,6
2,5905	-27,1	15,3
2,591	-29,8	14,4
2,5915	-32,2	13,2
2,592	-33,8	11,9
2,5925	-34,0	10,9
2,593	-32,4	10,6
2,5935	-29,7	10,8
2,594	-26,2	11,5
2,5945	-22,3	12,5
2,595	-17,5	13,7
2,5955	-12,2	14,6
2,596	-6,9	15,0
2,5965	-2,3	14,8
2,597	1,7	14,0
2,5975	5,5	12,9
2,598	9,1	11,8
2,5985	11,8	11,3
2,599	12,8	11,3
2,5995	12,0	11,7
2,6	9,7	12,2
2,6005	6,8	12,5
2,601	4,0	12,9
2,6015	1,9	13,3
2,602	0,4	13,7
2,6025	-0,7	13,7
2,603	-1,6	13,3
2,6035	-2,7	12,5
2,604	-3,5	11,8
2,6045	-3,7	11,4
2,605	-3,0	11,5
2,6055	-1,7	12,3
2,606	0,2	13,2
2,6065	2,1	13,9
2,607	3,7	13,8
2,6075	4,9	13,3
2,608	5,9	12,7
2,6085	7,2	12,3
2,609	8,6	12,4
2,6095	10,0	12,8
2,61	11,0	13,4
2,6105	11,3	14,3
2,611	11,4	15,3
2,6115	11,4	16,2
2,612	11,6	16,4
2,6125	11,5	16,1
2,613	10,8	15,6
2,6135	9,3	15,0
2,614	7,5	14,4
2,6145	5,9	13,6
2,615	4,5	12,7
2,6155	3,0	12,1
2,616	1,2	11,9
2,6165	-1,0	12,0
2,617	-3,7	12,1
2,6175	-6,8	12,0
2,618	-10,5	11,8
2,6185	-14,3	11,5
2,619	-17,3	11,4
2,6195	-19,3	11,6
2,62	-20,7	12,2
2,6205	-22,2	13,2
2,621	-23,8	14,3
2,6215	-24,4	15,2
2,622	-23,3	15,8
2,6225	-19,8	16,3
2,623	-14,3	16,7
2,6235	-7,8	17,0
2,624	-1,7	17,1
2,6245	3,1	16,7
2,625	5,9	15,7
2,6255	6,7	14,3
2,626	5,7	12,9
2,6265	2,9	12,0
2,627	-1,0	11,8
2,6275	-5,1	12,3
2,628	-8,4	13,1
2,6285	-10,1	14,0
2,629	-10,3	14,8
2,6295	-9,6	15,3
2,63	-8,5	15,4
2,6305	-7,7	15,0
2,631	-7,3	14,2
2,6315	-7,5	13,3
2,632	-8,5	12,5
2,6325	-10,3	11,6
2,633	-12,5	10,7
2,6335	-14,3	9,7
2,634	-13,8	8,8
2,6345	-9,6	8,3
2,635	-2,0	8,2
2,6355	7,8	8,4
2,636	19,8	8,8
2,6365	34,6	9,2
2,637	50,9	9,7
2,6375	65,0	10,1
2,638	73,9	10,6
2,6385	76,9	11,0
2,639	74,8	11,7
2,6395	68,3	12,5
2,64	57,2	13,3
2,6405	41,9	13,8
2,641	23,4	13,9
2,6415	2,7	13,4
2,642	-18,9	12,7
2,6425	-39,3	12,3
2,643	-56,0	12,7
2,6435	-67,1	13,8
2,644	-71,6	15,2
2,6445	-69,8	16,3
2,645	-62,8	16,9
2,6455	-52,1	16,9
2,646	-39,4	16,5
2,6465	-26,1	16,1
2,647	-13,4	15,8
2,6475	-2,5	15,7
2,648	5,8	15,8
2,6485	11,4	16,2
2,649	14,3	16,7
2,6495	15,3	16,9
2,65	14,8	16,9
2,6505	13,4	16,8
2,651	10,8	16,6
2,6515	6,5	16,1
2,652	0,2	15,4
2,6525	-7,7	14,6
2,653	-15,5	14,0
2,6535	-21,6	13,7
2,654	-25,2	13,7
2,6545	-26,3	13,9
2,655	-25,4	14,2
2,6555	-22,9	14,3
2,656	-19,3	14,2
2,6565	-15,4	14,1
2,657	-12,1	14,0
2,6575	-9,8	14,0
2,658	-8,7	14,2
2,6585	-7,5	14,5
2,659	-5,1	14,8
2,6595	-0,8	15,3
2,66	4,8	16,0
2,6605	10,2	16,8
2,661	14,1	17,6
2,6615	15,8	18,1
2,662	15,3	18,3
2,6625	13,1	18,0
2,663	10,8	17,2
2,6635	10,2	16,1
2,664	11,9	14,8
2,6645	15,6	13,9
2,665	20,2	13,6
2,6655	24,5	13,8
2,666	27,7	14,5
2,6665	29,1	15,5
2,667	28,8	16,8
2,6675	26,9	17,9
2,668	22,9	18,3
2,6685	16,9	17,6
2,669	8,9	15,8
2,6695	-0,1	13,5
2,67	-8,9	11,4
2,6705	-16,5	10,1
2,671	-22,1	10,0
2,6715	-25,5	11,1
2,672	-27,1	13,0
2,6725	-27,4	15,1
2,673	-27,0	16,9
2,6735	-26,3	17,9
2,674	-25,6	18,0
2,6745	-24,9	17,1
2,675	-24,0	15,8
2,6755	-22,3	14,6
2,676	-19,5	14,3
2,6765	-16,2	14,9
2,677	-13,1	16,0
2,6775	-10,5	17,1
2,678	-8,6	17,9
2,6785	-7,2	18,3
2,679	-6,1	18,3
2,6795	-5,1	17,8
2,68	-3,6	17,1
2,6805	-1,5	16,1
2,681	0,8	15,0
2,6815	2,9	13,9
2,682	4,6	13,0
2,6825	5,9	12,5
2,683	6,8	12,3
2,6835	7,2	12,4
2,684	7,2	12,7
2,6845	7,2	12,6
2,685	7,8	11,8
2,6855	9,6	10,4
2,686	12,7	8,7
2,6865	16,5	7,4
2,687	19,8	6,9
2,6875	21,8	7,3
2,688	22,7	8,2
2,6885	23,3	9,3
2,689	24,8	10,8
2,6895	27,4	12,3
2,69	30,5	13,5
2,6905	33,2	14,1
2,691	34,6	14,1
2,6915	34,4	13,8
2,692	32,6	13,4
2,6925	29,1	13,5
2,693	24,0	14,3
2,6935	17,4	15,7
2,694	10,0	17,5
2,6945	2,4	19,1
2,695	-4,3	20,3
2,6955	-9,8	20,9
2,696	-13,6	20,6
2,6965	-15,9	19,4
2,697	-17,3	17,5
2,6975	-18,8	15,3
2,698	-21,3	13,3
2,6985	-25,6	12,5
2,699	-31,3	12,8
2,6995	-37,2	13,8
2,7	-41,7	14,8
2,7005	-44,1	15,4
2,701	-44,8	15,5
2,7015	-44,5	15,2
2,702	-43,6	14,7
2,7025	-42,3	14,0
2,703	-40,7	13,1
2,7035	-38,9	12,3
2,704	-36,7	11,9
2,7045	-32,4	12,0
2,705	-23,7	12,4
2,7055	-10,0	13,2
2,706	6,8	14,1
2,7065	22,6	14,9
2,707	34,3	15,4
2,7075	40,8	15,4
2,708	42,9	15,3
2,7085	42,9	15,3
2,709	42,3	15,5
2,7095	41,1	16,0
2,71	38,4	16,8
2,7105	34,0	17,5
2,711	28,3	17,8
2,7115	21,9	17,6
2,712	14,8	17,0
2,7125	7,2	16,1
2,713	-1,3	15,2
2,7135	-10,5	14,3
2,714	-19,6	13,6
2,7145	-27,5	13,1
2,715	-33,2	13,0
2,7155	-36,0	13,4
2,716	-36,0	13,9
2,7165	-34,0	14,1
2,717	-31,6	14,0
2,7175	-29,8	13,5
2,718	-28,6	12,7
2,7185	-27,1	11,8
2,719	-24,8	10,8
2,7195	-21,7	10,1
2,72	-18,7	9,7
2,7205	-16,3	9,5
2,721	-14,4	9,8
2,7215	-12,7	10,2
2,722	-11,2	10,8
2,7225	-10,1	11,6
2,723	-9,8	12,4
2,7235	-10,3	12,9
2,724	-11,3	13,2
2,7245	-12,5	13,1
2,725	-13,3	12,8
2,7255	-11,8	12,5
2,726	-6,4	12,3
2,7265	2,2	12,5
2,727	11,2	12,9
2,7275	18,0	13,6
2,728	21,6	14,3
2,7285	22,1	14,8
2,729	19,5	14,9
2,7295	14,7	14,4
2,73	8,8	13,6
2,7305	3,2	12,6
2,731	-1,9	11,5
2,7315	-7,3	10,8
2,732	-13,6	10,5
2,7325	-20,6	10,7
2,733	-27,8	11,3
2,7335	-34,9	11,9
2,734	-41,7	12,5
2,7345	-47,3	12,9
2,735	-50,1	12,9
2,7355	-49,1	12,6
2,736	-44,4	11,8
2,7365	-37,5	10,5
2,737	-30,2	8,9
2,7375	-23,4	7,6
2,738	-17,2	6,9
2,7385	-10,7	6,8
2,739	-4,1	7,5
2,7395	1,7	8,7
2,74	5,6	10,1
2,7405	7,4	11,7
2,741	7,5	13,2
2,7415	7,1	14,5
2,742	6,8	15,5
2,7425	7,0	16,3
2,743	7,3	17,4
2,7435	7,2	18,5
2,744	6,0	19,4
2,7445	3,4	19,7
2,745	-1,6	19,2
2,7455	-9,1	18,1
2,746	-18,3	16,8
2,7465	-27,4	15,8
2,747	-34,4	15,2
2,7475	-38,5	15,1
2,748	-39,9	15,1
2,7485	-39,4	14,8
2,749	-37,5	14,4
2,7495	-34,6	14,2
2,75	-31,2	14,5
2,7505	-27,9	15,3
2,751	-25,3	16,2
2,7515	-23,6	17,0
2,752	-22,4	17,7
2,7525	-21,2	18,2
2,753	-19,8	18,7
2,7535	-18,2	19,1
2,754	-17,0	19,6
2,7545	-16,8	20,0
2,755	-17,2	20,3
2,7555	-17,7	20,5
2,756	-17,3	20,8
2,7565	-15,3	21,0
2,757	-12,1	20,7
2,7575	-7,8	19,8
2,758	-3,3	18,6
2,7585	1,3	17,2
2,759	6,2	16,0
2,7595	12,1	15,0
2,76	19,7	14,6
2,7605	28,3	14,6
2,761	36,7	15,2
2,7615	43,6	16,1
2,762	48,3	17,2
2,7625	51,3	18,6
2,763	52,6	20,0
2,7635	52,5	21,4
2,764	50,3	22,3
2,7645	45,4	22,5
2,765	37,4	22,0
2,7655	26,6	21,2
2,766	14,2	20,2
2,7665	1,8	19,0
2,767	-9,7	17,7
2,7675	-19,5	16,2
2,768	-27,3	14,8
2,7685	-32,3	13,8
2,769	-34,8	13,5
2,7695	-35,4	13,9
2,77	-34,5	14,8
2,7705	-32,4	15,6
2,771	-29,6	15,5
2,7715	-27,0	14,8
2,772	-25,7	14,2
2,7725	-25,8	14,2
2,773	-26,9	14,8
2,7735	-28,1	15,6
2,774	-28,7	16,3
2,7745	-28,2	16,6
2,775	-26,1	16,5
2,7755	-21,8	15,9
2,776	-15,8	15,2
2,7765	-9,4	14,7
2,777	-4,1	14,8
2,7775	-0,5	15,4
2,778	1,5	16,2
2,7785	2,3	16,9
2,779	2,2	17,3
2,7795	1,6	17,3
2,78	1,0	17,0
2,7805	0,7	16,7
2,781	0,0	16,5
2,7815	-2,0	16,7
2,782	-5,7	17,5
2,7825	-10,3	18,7
2,783	-13,6	19,9
2,7835	-14,2	20,7
2,784	-12,3	20,8
2,7845	-9,4	20,2
2,785	-7,1	19,2
2,7855	-6,1	18,0
2,786	-7,1	16,8
2,7865	-9,6	15,9
2,787	-13,1	15,5
2,7875	-17,1	15,7
2,788	-21,2	16,2
2,7885	-24,7	16,8
2,789	-26,8	16,9
2,7895	-27,0	16,5
2,79	-25,0	15,8
2,7905	-21,3	14,8
2,791	-16,7	13,8
2,7915	-12,1	13,1
2,792	-8,2	12,8
2,7925	-4,3	13,0
2,793	0,7	13,7
2,7935	7,0	14,6
2,794	13,2	15,2
2,7945	17,8	15,0
2,795	19,5	14,5
2,7955	18,4	13,8
2,796	15,3	13,3
2,7965	11,5	13,4
2,797	7,3	13,8
2,7975	1,9	14,2
2,798	-4,9	14,5
2,7985	-12,3	14,7
2,799	-18,8	14,9
2,7995	-23,6	15,2
2,8	-27,2	15,3
2,8005	-30,4	15,2
2,801	-33,2	14,8
2,8015	-35,2	14,4
2,802	-35,9	13,8
2,8025	-35,1	13,1
2,803	-32,5	12,3
2,8035	-28,0	11,4
2,804	-21,8	10,8
2,8045	-14,5	10,6
2,805	-7,6	10,8
2,8055	-2,3	11,5
2,806	1,3	12,6
2,8065	4,1	13,8
2,807	7,0	14,7
2,8075	9,8	14,9
2,808	12,4	14,4
2,8085	14,0	13,2
2,809	14,4	11,9
2,8095	13,3	11,0
2,81	10,9	11,1
2,8105	7,5	12,1
2,811	3,9	13,8
2,8115	0,5	15,5
2,812	-2,7	16,9
2,8125	-5,8	17,8
2,813	-8,8	18,2
2,8135	-11,8	17,8
2,814	-14,6	16,9
2,8145	-16,2	15,4
2,815	-15,6	14,1
2,8155	-12,3	13,1
2,816	-7,1	12,6
2,8165	-1,0	12,4
2,817	4,9	12,4
2,8175	9,9	12,4
2,818	13,2	12,3
2,8185	14,0	12,2
2,819	11,7	12,0
2,8195	6,2	11,9
2,82	-1,4	11,6
2,8205	-9,8	11,2
2,821	-17,5	11,0
2,8215	-23,7	11,2
2,822	-27,9	11,8
2,8225	-30,2	12,8
2,823	-31,1	13,7
2,8235	-31,2	14,5
2,824	-30,3	14,9
2,8245	-28,7	14,9
2,825	-26,3	14,8
2,8255	-23,0	14,6
2,826	-18,3	14,7
2,8265	-12,2	14,9
2,827	-5,3	15,2
2,8275	1,3	15,2
2,828	7,2	14,9
2,8285	11,8	14,0
2,829	14,8	12,8
2,8295	15,6	11,7
2,83	14,1	10,9
2,8305	11,0	10,6
2,831	7,8	10,7
2,8315	5,3	11,1
2,832	3,8	11,8
2,8325	3,2	12,4
2,833	2,9	12,8
2,8335	2,1	12,7
2,834	-0,2	12,1
2,8345	-3,8	11,2
2,835	-7,7	10,2
2,8355	-11,3	9,4
2,836	-14,5	8,6
2,8365	-17,8	7,6
2,837	-21,3	6,7
2,8375	-25,1	6,1
2,838	-28,4	6,1
2,8385	-30,7	6,8
2,839	-32,2	8,0
2,8395	-32,9	9,5
2,84	-32,8	11,1
2,8405	-32,0	12,2
2,841	-30,7	12,7
2,8415	-29,4	12,5
2,842	-28,6	11,9
2,8425	-28,2	10,9
2,843	-28,3	10,1
2,8435	-28,9	9,6
2,844	-29,8	9,7
2,8445	-30,9	10,5
2,845	-31,8	11,6
2,8455	-31,8	12,7
2,846	-30,4	13,3
2,8465	-28,0	13,6
2,847	-24,8	13,5
2,8475	-21,3	13,1
2,848	-17,5	12,5
2,8485	-13,7	12,0
2,849	-9,7	11,8
2,8495	-5,2	12,0
2,85	0,2	12,4
2,8505	6,1	12,8
2,851	11,4	12,8
2,8515	15,2	12,2
2,852	17,3	11,2
2,8525	17,9	10,2
2,853	17,2	9,7
2,8535	14,8	9,8
2,854	10,3	10,3
2,8545	4,8	10,9
2,855	-0,6	11,4
2,8555	-5,1	11,9
2,856	-8,4	12,6
2,8565	-10,8	13,2
2,857	-12,4	13,4
2,8575	-13,3	13,2
2,858	-13,8	12,8
2,8585	-14,2	12,3
2,859	-14,8	12,1
2,8595	-16,0	12,2
2,86	-18,3	12,5
2,8605	-21,7	13,2
2,861	-25,3	14,3
2,8615	-28,5	15,6
2,862	-30,7	16,8
2,8625	-31,8	17,5
2,863	-31,8	17,6
2,8635	-30,5	17,3
2,864	-27,7	16,4
2,8645	-23,4	15,3
2,865	-17,7	14,2
2,8655	-11,0	13,5
2,866	-3,8	13,3
2,8665	3,4	13,6
2,867	9,9	14,0
2,8675	14,9	14,3
2,868	18,1	14,3
2,8685	19,2	13,8
2,869	18,8	13,2
2,8695	17,5	12,7
2,87	16,0	12,4
2,8705	14,3	12,1
2,871	12,0	11,8
2,8715	9,1	11,5
2,872	5,7	11,1
2,8725	2,0	10,8
2,873	-1,8	10,7
2,8735	-5,7	10,5
2,874	-9,0	10,2
2,8745	-10,3	9,6
2,875	-8,7	9,0
2,8755	-4,6	8,5
2,876	0,8	8,1
2,8765	7,3	7,8
2,877	15,2	7,5
2,8775	23,7	7,3
2,878	30,8	7,3
2,8785	34,2	7,5
2,879	32,2	7,9
2,8795	24,9	8,5
2,88	14,3	9,2
2,8805	2,9	9,7
2,881	-8,2	9,8
2,8815	-19,1	9,7
2,882	-30,5	9,7
2,8825	-42,0	9,9
2,883	-52,2	10,3
2,8835	-60,1	10,8
2,884	-65,8	11,2
2,8845	-69,6	11,4
2,885	-70,6	11,2
2,8855	-67,9	10,6
2,886	-61,9	9,7
2,8865	-54,4	8,8
2,887	-47,8	8,1
2,8875	-43,0	8,2
2,888	-39,2	9,1
2,8885	-35,3	10,3
2,889	-31,1	11,2
2,8895	-27,1	11,7
2,89	-24,0	12,0
2,8905	-21,1	12,3
2,891	-17,8	12,7
2,8915	-14,2	13,0
2,892	-11,0	13,2
2,8925	-8,9	13,4
2,893	-7,9	13,6
2,8935	-7,2	13,9
2,894	-5,7	14,2
2,8945	-3,1	14,4
2,895	0,5	14,4
2,8955	4,3	13,8
2,896	7,6	12,9
2,8965	9,8	11,8
2,897	10,9	10,8
2,8975	11,3	9,9
2,898	11,1	9,1
2,8985	10,7	8,3
2,899	10,0	7,8
2,8995	9,2	7,4
2,9	8,3	7,5
2,9005	7,4	8,1
2,901	6,2	8,8
2,9015	4,6	8,9
2,902	2,6	8,4
2,9025	0,2	7,6
2,903	-2,6	6,8
2,9035	-6,3	6,5
2,904	-11,1	6,8
2,9045	-16,3	7,8
2,905	-21,2	9,3
2,9055	-25,0	11,1
2,906	-27,6	12,8
2,9065	-28,2	13,9
2,907	-24,8	14,5
2,9075	-16,4	14,6
2,908	-5,0	14,6
2,9085	5,7	14,8
2,909	12,9	15,2
2,9095	16,4	15,2
2,91	17,1	14,7
2,9105	16,3	13,7
2,911	13,7	12,6
2,9115	8,3	11,7
2,912	-0,3	11,2
2,9125	-11,8	11,0
2,913	-25,3	11,3
2,9135	-39,6	11,6
2,914	-53,1	12,0
2,9145	-64,5	12,0
2,915	-72,9	12,0
2,9155	-77,6	11,8
2,916	-77,8	11,7
2,9165	-73,6	11,6
2,917	-65,8	11,3
2,9175	-55,7	10,9
2,918	-44,6	10,0
2,9185	-32,8	8,7
2,919	-20,5	7,0
2,9195	-8,4	5,4
2,92	2,3	4,2
2,9205	11,0	3,6
2,921	17,5	3,7
2,9215	21,7	4,6
2,922	23,5	6,1
2,9225	22,8	8,2
2,923	20,1	10,3
2,9235	16,8	11,8
2,924	13,7	12,5
2,9245	10,8	12,6
2,925	6,9	12,3
2,9255	1,7	11,9
2,926	-4,3	11,7
2,9265	-9,2	11,8
2,927	-11,8	12,6
2,9275	-11,9	13,6
2,928	-10,3	14,9
2,9285	-8,1	15,9
2,929	-5,8	16,5
2,9295	-3,8	16,3
2,93	-1,8	15,3
2,9305	-0,2	13,7
2,931	0,9	12,3
2,9315	1,0	11,5
2,932	-0,1	11,8
2,9325	-2,1	12,8
2,933	-4,3	13,9
2,9335	-6,1	14,7
2,934	-7,0	14,9
2,9345	-6,7	14,4
2,935	-5,5	13,4
2,9355	-4,0	12,4
2,936	-2,4	11,6
2,9365	-0,7	11,1
2,937	1,6	10,9
2,9375	4,6	10,9
2,938	7,7	10,9
2,9385	10,5	10,8
2,939	12,7	10,8
2,9395	14,0	11,0
2,94	14,5	11,2
2,9405	14,0	11,3
2,941	12,9	11,3
2,9415	11,2	11,0
2,942	8,5	10,4
2,9425	4,5	10,0
2,943	-0,7	9,8
2,9435	-6,3	10,1
2,944	-10,7	10,7
2,9445	-13,3	11,7
2,945	-14,3	12,7
2,9455	-14,8	13,5
2,946	-14,5	14,0
2,9465	-12,3	14,2
2,947	-6,9	14,2
2,9475	0,9	14,1
2,948	8,8	14,0
2,9485	14,5	14,2
2,949	17,1	14,8
2,9495	16,8	15,7
2,95	14,3	16,6
2,9505	9,8	17,2
2,951	3,6	17,3
2,9515	-4,1	17,1
2,952	-12,3	16,9
2,9525	-19,2	16,8
2,953	-23,4	16,1
2,9535	-25,4	14,7
2,954	-26,5	12,5
2,9545	-27,4	9,8
2,955	-27,9	7,4
2,9555	-27,9	6,0
2,956	-27,5	6,0
2,9565	-26,9	7,0
2,957	-26,1	8,4
2,9575	-25,2	9,5
2,958	-24,1	9,8
2,9585	-23,3	9,6
2,959	-23,1	9,3
2,9595	-23,2	9,2
2,96	-22,7	9,5
2,9605	-21,1	10,0
2,961	-19,0	10,6
2,9615	-17,1	11,6
2,962	-15,6	13,0
2,9625	-14,0	14,7
2,963	-11,7	15,9
2,9635	-7,6	16,0
2,964	-2,0	15,1
2,9645	4,2	13,5
2,965	9,1	11,8
2,9655	11,9	10,6
2,966	12,7	10,2
2,9665	12,4	10,5
2,967	11,7	11,3
2,9675	10,4	12,1
2,968	8,4	12,8
2,9685	5,5	13,3
2,969	2,3	13,7
2,9695	-0,6	14,0
2,97	-2,8	14,0
2,9705	-4,3	13,9
2,971	-5,4	13,8
2,9715	-6,2	13,7
2,972	-7,1	13,8
2,9725	-8,5	14,0
2,973	-10,3	14,1
2,9735	-12,5	14,2
2,974	-14,9	14,4
2,9745	-17,7	14,8
2,975	-20,3	15,3
2,9755	-22,3	15,6
2,976	-23,2	15,6
2,9765	-22,7	15,4
2,977	-20,7	15,2
2,9775	-16,9	14,9
2,978	-11,3	14,5
2,9785	-5,0	14,1
2,979	1,1	13,7
2,9795	5,6	13,3
2,98	8,1	13,1
2,9805	8,9	13,0
2,981	8,3	13,2
2,9815	6,7	13,6
2,982	4,3	14,1
2,9825	1,4	14,7
2,983	-1,3	15,0
2,9835	-4,0	14,9
2,984	-6,7	14,1
2,9845	-9,2	12,7
2,985	-11,1	11,0
2,9855	-12,6	9,6
2,986	-13,8	8,9
2,9865	-14,5	9,0
2,987	-14,0	9,6
2,9875	-12,1	10,6
2,988	-9,5	11,6
2,9885	-7,3	12,3
2,989	-6,3	12,6
2,9895	-6,8	12,6
2,99	-8,1	12,7
2,9905	-9,3	12,8
2,991	-9,7	13,0
2,9915	-9,5	12,9
2,992	-9,1	12,5
2,9925	-8,6	11,8
2,993	-8,4	11,2
2,9935	-8,9	11,1
2,994	-10,5	11,7
2,9945	-12,7	12,5
2,995	-15,0	13,1
2,9955	-16,5	13,1
2,996	-16,1	12,4
2,9965	-13,3	11,4
2,997	-8,3	10,6
2,9975	-2,3	10,3
2,998	4,1	10,4
2,9985	10,4	11,0
2,999	16,7	11,8
2,9995	22,1	12,4
3	25,8	12,6
3,0005	26,7	11,9
3,001	25,1	10,8
3,0015	21,8	9,7
3,002	17,9	8,8
3,0025	14,2	8,5
3,003	11,2	8,4
3,0035	8,6	8,4
3,004	5,9	8,8
3,0045	3,0	9,7
3,005	0,4	11,3
3,0055	-0,1	13,4
3,006	3,4	15,8
3,0065	11,2	18,0
3,007	21,3	19,4
3,0075	30,5	19,5
3,008	36,4	18,5
3,0085	38,9	16,8
3,009	38,8	14,9
3,0095	37,3	13,2
3,01	34,6	11,7
3,0105	30,1	10,9
3,011	22,6	10,7
3,0115	11,5	11,0
3,012	-2,4	11,6
3,0125	-16,9	12,3
3,013	-29,4	12,8
3,0135	-37,7	13,2
3,014	-41,2	13,2
3,0145	-40,5	13,0
3,015	-36,6	12,6
3,0155	-30,8	12,3
3,016	-24,1	12,2
3,0165	-17,3	12,4
3,017	-10,4	12,8
3,0175	-2,8	13,0
3,018	6,2	12,9
3,0185	16,5	12,5
3,019	26,8	11,8
3,0195	35,1	11,0
3,02	39,8	10,3
3,0205	40,2	9,6
3,021	36,0	9,0
3,0215	28,1	8,7
3,022	17,9	8,9
3,0225	6,9	9,7
3,023	-3,5	11,0
3,0235	-12,1	12,3
3,024	-18,6	13,4
3,0245	-23,5	14,2
3,025	-27,2	14,8
3,0255	-29,6	15,2
3,026	-30,5	15,5
3,0265	-29,9	15,8
3,027	-28,1	16,0
3,0275	-24,8	16,1
3,028	-20,3	16,4
3,0285	-14,7	16,7
3,029	-8,8	16,9
3,0295	-3,3	16,8
3,03	1,1	16,1
3,0305	4,3	15,1
3,031	6,8	13,8
3,0315	8,8	12,7
3,032	10,7	12,0
3,0325	12,3	11,4
3,033	13,4	10,6
3,0335	14,2	9,7
3,034	14,2	8,9
3,0345	13,3	8,5
3,035	11,5	8,4
3,0355	9,1	8,6
3,036	6,7	8,8
3,0365	4,4	9,1
3,037	2,5	9,7
3,0375	0,9	10,6
3,038	0,3	11,8
3,0385	1,8	13,1
3,039	5,7	14,3
3,0395	10,7	15,3
3,04	14,8	16,1
3,0405	16,7	16,5
3,041	16,1	16,2
3,0415	13,4	15,3
3,042	9,5	13,9
3,0425	5,1	12,9
3,043	-0,0	12,5
3,0435	-6,1	12,7
3,044	-12,7	13,2
3,0445	-18,8	13,9
3,045	-23,8	14,4
3,0455	-27,3	14,8
3,046	-29,7	14,8
3,0465	-31,0	14,5
3,047	-31,7	14,0
3,0475	-31,8	13,4
3,048	-31,2	12,8
3,0485	-30,2	12,7
3,049	-28,8	12,9
3,0495	-26,6	13,3
3,05	-23,2	13,4
3,0505	-19,0	13,1
3,051	-14,8	12,5
3,0515	-11,8	12,0
3,052	-10,0	11,9
3,0525	-9,0	12,0
3,053	-8,9	11,9
3,0535	-9,6	11,4
3,054	-10,2	10,8
3,0545	-9,5	10,1
3,055	-6,2	9,8
3,0555	-0,7	10,0
3,056	5,4	10,4
3,0565	10,8	10,8
3,057	15,0	10,6
3,0575	18,4	10,1
3,058	21,0	9,4
3,0585	22,9	8,9
3,059	24,0	9,0
3,0595	24,3	9,7
3,06	23,5	10,8
3,0605	21,7	12,1
3,061	19,3	13,1
3,0615	17,0	13,7
3,062	15,8	13,9
3,0625	16,2	14,1
3,063	17,6	14,3
3,0635	19,2	14,6
3,064	19,6	14,4
3,0645	18,1	13,4
3,065	14,8	12,1
3,0655	10,9	10,9
3,066	7,9	10,3
3,0665	6,6	10,4
3,067	6,7	10,7
3,0675	7,3	10,8
3,068	7,5	10,6
3,0685	6,8	10,3
3,069	5,1	9,8
3,0695	2,1	9,3
3,07	-2,1	8,7
3,0705	-6,8	8,4
3,071	-11,6	8,8
3,0715	-16,2	10,1
3,072	-20,8	11,6
3,0725	-25,6	13,0
3,073	-29,9	14,0
3,0735	-32,8	14,7
3,074	-33,1	15,1
3,0745	-30,4	15,3
3,075	-25,4	15,3
3,0755	-19,4	15,0
3,076	-14,3	14,6
3,0765	-11,2	14,2
3,077	-10,0	13,7
3,0775	-10,1	13,3
3,078	-10,5	13,1
3,0785	-10,7	13,1
3,079	-10,3	13,5
3,0795	-9,3	14,0
3,08	-7,8	14,2
3,0805	-6,0	13,9
3,081	-4,0	13,3
3,0815	-2,5	12,5
3,082	-1,8	12,1
3,0825	-1,6	12,3
3,083	-1,5	12,9
3,0835	-1,1	13,6
3,084	-0,1	14,2
3,0845	1,1	14,6
3,085	2,2	14,8
3,0855	3,6	14,6
3,086	5,7	13,9
3,0865	9,3	12,8
3,087	14,5	11,8
3,0875	21,3	11,2
3,088	29,1	11,2
3,0885	36,0	11,4
3,089	40,0	11,5
3,0895	39,6	11,5
3,09	34,8	11,3
3,0905	27,1	11,1
3,091	18,0	11,0
3,0915	8,8	11,4
3,092	-0,2	12,4
3,0925	-8,6	14,2
3,093	-16,2	16,3
3,0935	-23,3	18,2
3,094	-29,8	19,3
3,0945	-35,5	19,7
3,095	-39,7	19,3
3,0955	-41,3	18,4
3,096	-39,2	17,4
3,0965	-33,0	16,4
3,097	-23,5	15,5
3,0975	-12,7	14,7
3,098	-2,5	13,8
3,0985	6,0	13,0
3,099	12,4	12,3
3,0995	16,1	12,1
3,1	16,2	12,6
3,1005	12,6	13,8
3,101	6,3	15,2
3,1015	-0,7	16,2
3,102	-6,9	16,6
3,1025	-12,0	16,5
3,103	-16,0	16,3
3,1035	-19,2	16,4
3,104	-21,6	16,8
3,1045	-23,4	17,4
3,105	-24,7	17,8
3,1055	-25,4	18,2
3,106	-25,2	18,2
3,1065	-23,3	17,9
3,107	-19,8	16,9
3,1075	-15,9	15,6
3,108	-13,1	14,0
3,1085	-12,1	12,5
3,109	-12,4	11,4
3,1095	-13,0	10,9
3,11	-13,7	10,8
3,1105	-14,9	10,9
3,111	-16,6	11,3
3,1115	-18,3	11,8
3,112	-19,6	12,4
3,1125	-20,2	12,8
3,113	-19,7	12,8
3,1135	-18,2	12,6
3,114	-16,0	12,0
3,1145	-13,8	11,1
3,115	-12,0	10,3
3,1155	-11,0	10,2
3,116	-10,3	10,7
3,1165	-9,5	11,9
3,117	-8,1	13,2
3,1175	-6,1	14,2
3,118	-3,0	14,8
3,1185	1,9	15,2
3,119	9,2	15,4
3,1195	17,5	15,7
3,12	25,1	16,0
3,1205	30,8	16,5
3,121	34,0	17,2
3,1215	34,6	17,9
3,122	32,4	18,4
3,1225	27,3	18,6
3,123	19,4	18,4
3,1235	9,6	17,8
3,124	-0,7	16,8
3,1245	-10,1	15,5
3,125	-17,1	14,3
3,1255	-21,3	13,7
3,126	-23,1	13,9
3,1265	-24,0	14,9
3,127	-25,0	16,4
3,1275	-26,3	18,0
3,128	-26,9	19,0
3,1285	-26,1	19,2
3,129	-23,7	18,6
3,1295	-19,9	17,2
3,13	-15,1	15,1
3,1305	-9,6	12,8
3,131	-3,8	10,7
3,1315	1,9	9,3
3,132	7,0	9,2
3,1325	11,1	10,1
3,133	14,0	11,9
3,1335	15,5	13,9
3,134	15,6	15,7
3,1345	14,6	16,9
3,135	13,1	17,3
3,1355	11,6	17,0
3,136	10,6	16,1
3,1365	10,1	15,2
3,137	9,9	14,6
3,1375	9,3	14,4
3,138	8,4	14,5
3,1385	7,8	14,5
3,139	8,3	14,4
3,1395	10,2	14,3
3,14	13,0	14,3
3,1405	15,7	14,4
3,141	17,4	14,2
3,1415	18,2	13,8
3,142	17,9	13,7
3,1425	16,5	14,3
3,143	14,1	15,2
3,1435	11,1	15,9
3,144	7,8	15,8
3,1445	4,2	14,9
3,145	0,6	13,9
3,1455	-2,8	13,2
3,146	-5,2	13,2
3,1465	-6,5	13,7
3,147	-6,9	14,3
3,1475	-7,1	15,0
3,148	-7,3	15,6
3,1485	-7,6	16,3
3,149	-7,3	16,8
3,1495	-6,1	17,0
3,15	-4,3	16,5
3,1505	-2,2	15,6
3,151	-0,4	14,6
3,1515	1,0	13,7
3,152	2,0	12,7
3,1525	2,3	11,7
3,153	1,4	10,6
3,1535	-0,7	9,8
3,154	-3,7	9,4
3,1545	-6,7	9,4
3,155	-9,5	9,5
3,1555	-11,8	9,5
3,156	-13,4	9,4
3,1565	-14,3	9,5
3,157	-14,2	9,9
3,1575	-13,4	10,8
3,158	-12,1	12,0
3,1585	-10,4	13,4
3,159	-8,2	14,6
3,1595	-5,8	15,3
3,16	-3,5	15,7
3,1605	-1,5	16,1
3,161	0,4	16,8
3,1615	2,3	18,0
3,162	4,2	19,5
3,1625	5,6	20,6
3,163	6,6	21,0
3,1635	7,4	20,6
3,164	8,1	19,6
3,1645	9,1	18,2
3,165	12,3	16,7
3,1655	20,1	15,4
3,166	33,1	14,5
3,1665	49,1	13,9
3,167	64,7	13,2
3,1675	77,3	12,1
3,168	85,4	10,5
3,1685	88,0	8,8
3,169	85,1	7,5
3,1695	76,9	7,0
3,17	64,1	7,1
3,1705	47,1	7,8
3,171	26,6	8,8
3,1715	3,9	10,0
3,172	-19,1	11,4
3,1725	-40,5	12,9
3,173	-58,8	14,4
3,1735	-73,1	15,6
3,174	-82,3	16,3
3,1745	-85,6	16,5
3,175	-83,5	16,3
3,1755	-78,1	15,6
3,176	-71,6	14,6
3,1765	-64,9	13,5
3,177	-57,6	12,7
3,1775	-49,3	12,3
3,178	-40,1	12,1
3,1785	-29,6	12,2
3,179	-16,8	12,4
3,1795	-1,9	12,4
3,18	12,6	12,2
3,1805	23,4	11,7
3,181	28,9	11,0
3,1815	29,3	10,3
3,182	26,5	9,8
3,1825	22,3	9,8
3,183	18,2	10,1
3,1835	14,7	10,6
3,184	11,8	11,0
3,1845	9,5	11,4
3,185	8,1	11,7
3,1855	7,2	11,7
3,186	6,6	11,5
3,1865	5,9	11,3
3,187	5,3	11,2
3,1875	4,9	11,5
3,188	4,7	12,2
3,1885	4,5	13,0
3,189	4,1	13,8
3,1895	3,6	14,1
3,19	3,2	13,9
3,1905	3,2	13,2
3,191	3,3	12,1
3,1915	3,3	10,9
3,192	3,4	9,8
3,1925	4,2	9,1
3,193	5,8	9,0
3,1935	7,9	9,2
3,194	9,7	9,6
3,1945	11,1	10,1
3,195	12,0	10,6
3,1955	12,4	11,0
3,196	12,0	11,3
3,1965	10,4	11,5
3,197	7,0	11,8
3,1975	1,8	12,2
3,198	-4,3	12,6
3,1985	-10,1	13,2
3,199	-14,3	13,9
3,1995	-15,7	14,9
3,2	-13,5	16,1
3,2005	-7,9	17,0
3,201	0,0	17,2
3,2015	8,7	16,5
3,202	16,4	15,2
3,2025	21,3	13,7
3,203	22,7	12,1
3,2035	21,1	10,8
3,204	18,1	9,9
3,2045	15,2	9,8
3,205	12,8	10,4
3,2055	10,8	11,3
3,206	8,8	12,2
3,2065	6,8	13,2
3,207	5,3	13,8
3,2075	4,4	13,9
3,208	3,8	13,5
3,2085	2,4	12,8
3,209	-0,2	12,2
3,2095	-3,7	11,8
3,21	-7,5	11,8
3,2105	-10,9	11,7
3,211	-13,7	11,3
3,2115	-15,6	10,7
3,212	-16,3	10,2
3,2125	-15,6	10,0
3,213	-13,8	9,9
3,2135	-11,7	10,0
3,214	-9,8	9,8
3,2145	-8,3	9,5
3,215	-6,8	9,3
3,2155	-6,2	9,4
3,216	-6,7	10,2
3,2165	-8,0	11,2
3,217	-8,9	12,0
3,2175	-8,9	12,4
3,218	-7,8	12,3
3,2185	-6,1	11,6
3,219	-4,5	10,6
3,2195	-3,3	9,6
3,22	-3,0	8,8
3,2205	-3,1	8,4
3,221	-3,4	8,6
3,2215	-3,8	9,3
3,222	-4,4	10,3
3,2225	-5,3	11,7
3,223	-6,2	13,2
3,2235	-5,9	14,2
3,224	-3,7	14,7
3,2245	0,3	14,7
3,225	5,4	14,4
3,2255	10,2	13,9
3,226	13,7	13,4
3,2265	15,9	13,0
3,227	17,5	12,6
3,2275	19,5	12,4
3,228	22,0	12,2
3,2285	24,2	12,3
3,229	25,1	12,5
3,2295	24,0	12,5
3,23	21,0	12,2
3,2305	16,8	11,6
3,231	12,6	10,9
3,2315	8,9	10,6
3,232	5,3	11,1
3,2325	1,4	12,5
3,233	-2,5	14,3
3,2335	-5,9	16,0
3,234	-8,3	16,9
3,2345	-9,7	17,0
3,235	-10,0	16,5
3,2355	-9,7	15,8
3,236	-9,5	15,1
3,2365	-9,7	14,4
3,237	-10,6	13,8
3,2375	-11,8	13,4
3,238	-12,8	13,2
3,2385	-13,0	13,1
3,239	-12,0	13,2
3,2395	-10,0	13,4
3,24	-7,6	13,6
3,2405	-4,8	13,6
3,241	-2,0	13,3
3,2415	1,1	12,7
3,242	4,1	11,9
3,2425	6,6	11,2
3,243	8,4	10,8
3,2435	9,9	10,9
3,244	11,7	11,4
3,2445	14,0	12,2
3,245	16,8	13,1
3,2455	19,3	13,8
3,246	21,3	14,0
3,2465	22,3	13,9
3,247	22,3	13,6
3,2475	21,1	13,2
3,248	19,0	13,0
3,2485	16,2	13,3
3,249	13,4	14,2
3,2495	11,2	15,3
3,25	10,2	16,2
3,2505	10,5	16,5
3,251	12,1	16,3
3,2515	14,4	15,8
3,252	16,3	15,1
3,2525	16,9	14,5
3,253	16,0	14,2
3,2535	14,4	14,0
3,254	13,6	13,8
3,2545	13,9	13,4
3,255	15,1	12,9
3,2555	15,9	12,6
3,256	15,6	12,6
3,2565	14,4	12,7
3,257	13,7	12,7
3,2575	14,1	12,6
3,258	15,6	12,6
3,2585	16,9	12,7
3,259	17,4	12,9
3,2595	16,9	13,0
3,26	15,6	13,1
3,2605	14,1	13,4
3,261	13,1	13,7
3,2615	12,8	13,8
3,262	13,3	13,8
3,2625	14,5	13,7
3,263	16,0	13,7
3,2635	17,0	13,5
3,264	17,0	13,5
3,2645	15,7	13,6
3,265	13,6	13,9
3,2655	11,1	14,6
3,266	9,3	15,6
3,2665	8,7	16,9
3,267	9,0	18,1
3,2675	9,3	18,7
3,268	8,7	18,4
3,2685	6,9	17,2
3,269	3,6	15,5
3,2695	-1,2	14,0
3,27	-6,9	12,8
3,2705	-12,4	11,8
3,271	-16,8	11,2
3,2715	-20,1	10,4
3,272	-22,8	9,5
3,2725	-25,1	8,6
3,273	-26,8	7,8
3,2735	-27,4	7,4
3,274	-27,1	7,5
3,2745	-26,1	8,3
3,275	-24,6	9,6
3,2755	-23,2	11,4
3,276	-22,5	13,4
3,2765	-22,4	15,3
3,277	-22,0	17,1
3,2775	-20,3	18,5
3,278	-17,1	19,3
3,2785	-13,3	19,8
3,279	-8,7	20,1
3,2795	-2,2	20,4
3,28	6,6	20,7
3,2805	16,7	20,5
3,281	25,8	19,8
3,2815	32,1	18,8
3,282	34,7	17,9
3,2825	33,9	17,1
3,283	30,8	16,3
3,2835	26,1	15,4
3,284	19,6	14,4
3,2845	11,3	13,7
3,285	1,6	13,3
3,2855	-8,5	13,2
3,286	-17,7	13,0
3,2865	-25,3	12,5
3,287	-31,0	11,9
3,2875	-35,1	11,5
3,288	-38,1	11,5
3,2885	-40,0	11,9
3,289	-40,7	12,5
3,2895	-40,0	13,1
3,29	-37,5	13,6
3,2905	-32,5	13,7
3,291	-24,3	13,5
3,2915	-13,3	12,9
3,292	-1,7	12,0
3,2925	8,4	10,9
3,293	15,7	9,9
3,2935	20,4	9,2
3,294	23,0	8,8
3,2945	23,8	8,7
3,295	22,7	9,0
3,2955	20,4	9,8
3,296	19,7	10,9
3,2965	23,0	12,0
3,297	30,4	12,7
3,2975	39,0	13,1
3,298	44,8	13,3
3,2985	45,9	13,8
3,299	42,9	15,0
3,2995	37,7	16,2
3,3	32,3	17,2
3,3005	27,2	17,6
3,301	21,4	17,5
3,3015	14,1	17,1
3,302	4,9	16,4
3,3025	-5,9	15,8
3,303	-17,5	15,1
3,3035	-28,5	14,5
3,304	-37,5	14,1
3,3045	-43,5	13,9
3,305	-46,1	14,0
3,3055	-45,0	14,5
3,306	-40,7	15,5
3,3065	-34,3	16,9
3,307	-27,5	18,2
3,3075	-21,8	18,7
3,308	-17,1	18,4
3,3085	-13,3	17,5
3,309	-10,4	16,8
3,3095	-7,8	16,4
3,31	-4,7	16,5
3,3105	-1,0	16,8
3,311	2,8	17,4
3,3115	5,8	18,0
3,312	7,4	18,6
3,3125	7,5	18,8
3,313	6,5	18,8
3,3135	5,3	18,2
3,314	4,8	17,3
3,3145	5,2	16,2
3,315	5,9	15,4
3,3155	6,6	15,2
3,316	6,7	15,6
3,3165	5,9	16,3
3,317	4,2	16,9
3,3175	1,9	17,3
3,318	-0,7	17,2
3,3185	-3,5	16,7
3,319	-6,6	15,8
3,3195	-9,9	14,9
3,32	-13,3	14,1
3,3205	-16,2	13,7
3,321	-18,3	13,8
3,3215	-19,3	14,3
3,322	-19,3	14,9
3,3225	-18,1	15,5
3,323	-16,0	16,3
3,3235	-13,4	17,0
3,324	-11,2	17,5
3,3245	-9,3	17,7
3,325	-7,3	17,3
3,3255	-4,3	16,5
3,326	0,2	15,6
3,3265	5,5	14,8
3,327	10,4	14,4
3,3275	13,5	14,4
3,328	15,0	14,7
3,3285	15,8	15,1
3,329	17,2	15,6
3,3295	19,5	16,2
3,33	22,1	16,6
3,3305	24,8	16,7
3,331	27,6	16,6
3,3315	30,6	16,3
3,332	33,4	16,0
3,3325	35,7	15,7
3,333	37,8	15,4
3,3335	40,3	15,2
3,334	43,0	15,2
3,3345	45,1	15,3
3,335	45,4	15,4
3,3355	43,1	15,1
3,336	38,3	14,3
3,3365	31,7	13,3
3,337	24,6	12,3
3,3375	17,5	11,5
3,338	10,6	11,0
3,3385	3,2	10,9
3,339	-4,8	11,1
3,3395	-12,7	11,4
3,34	-19,8	11,8
3,3405	-25,2	12,1
3,341	-28,7	12,3
3,3415	-30,2	12,5
3,342	-29,7	12,7
3,3425	-26,9	13,1
3,343	-22,2	13,5
3,3435	-16,5	13,8
3,344	-10,8	14,2
3,3445	-5,7	14,4
3,345	-2,0	14,8
3,3455	0,0	15,1
3,346	1,5	15,3
3,3465	3,9	14,9
3,347	7,8	14,0
3,3475	12,3	12,8
3,348	16,1	11,8
3,3485	18,4	10,9
3,349	19,9	10,3
3,3495	20,7	9,9
3,35	20,7	9,7
3,3505	19,3	9,4
3,351	16,2	8,7
3,3515	11,1	7,6
3,352	4,5	6,3
3,3525	-2,6	5,5
3,353	-8,6	5,3
3,3535	-12,7	5,7
3,354	-14,8	6,7
3,3545	-15,5	7,9
3,355	-15,8	9,1
3,3555	-16,6	10,1
3,356	-18,1	11,0
3,3565	-20,0	12,0
3,357	-21,2	12,9
3,3575	-20,7	13,8
3,358	-18,4	14,4
3,3585	-14,9	14,9
3,359	-10,1	15,1
3,3595	-3,6	15,0
3,36	4,7	14,9
3,3605	13,1	15,0
3,361	19,5	15,4
3,3615	23,1	16,0
3,362	24,5	16,4
3,3625	24,8	16,4
3,363	24,0	16,1
3,3635	21,6	15,3
3,364	17,0	14,0
3,3645	10,5	12,5
3,365	2,9	11,4
3,3655	-4,4	11,0
3,366	-10,6	11,4
3,3665	-15,2	12,0
3,367	-18,3	12,3
3,3675	-19,7	12,2
3,368	-19,5	11,7
3,3685	-17,8	10,8
3,369	-14,8	9,9
3,3695	-11,1	8,9
3,37	-7,5	7,8
3,3705	-4,2	6,6
3,371	-1,4	5,5
3,3715	1,1	4,8
3,372	3,4	4,6
3,3725	5,7	4,8
3,373	7,8	5,2
3,3735	9,6	5,4
3,374	10,2	5,3
3,3745	8,6	4,9
3,375	4,8	4,6
3,3755	-0,5	4,5
3,376	-6,1	5,0
3,3765	-11,2	6,3
3,377	-15,2	8,0
3,3775	-18,2	9,7
3,378	-20,5	11,1
3,3785	-22,0	12,5
3,379	-22,3	14,1
3,3795	-21,5	15,7
3,38	-20,0	16,8
3,3805	-18,2	17,2
3,381	-16,5	16,7
3,3815	-15,4	15,7
3,382	-15,3	14,4
3,3825	-15,6	13,4
3,383	-15,1	13,0
3,3835	-12,6	13,2
3,384	-8,3	13,8
3,3845	-3,4	14,4
3,385	0,7	14,4
3,3855	2,8	13,5
3,386	2,8	11,8
3,3865	1,3	9,9
3,387	-1,1	8,5
3,3875	-3,6	8,0
3,388	-5,7	8,6
3,3885	-7,3	10,1
3,389	-8,4	12,0
3,3895	-9,1	13,7
3,39	-9,3	14,9
3,3905	-9,1	15,6
3,391	-8,7	15,6
3,3915	-8,1	15,1
3,392	-7,2	14,4
3,3925	-5,9	14,1
3,393	-4,0	14,2
3,3935	-1,9	14,6
3,394	0,5	15,0
3,3945	2,6	15,2
3,395	4,0	15,3
3,3955	4,6	15,3
3,396	4,6	15,5
3,3965	4,3	15,6
3,397	4,0	15,4
3,3975	3,8	14,7
3,398	3,4	13,5
3,3985	2,7	12,1
3,399	1,7	11,0
3,3995	0,8	10,3
3,4	0,5	10,4
3,4005	1,0	10,9
3,401	2,3	11,5
3,4015	4,1	11,8
3,402	5,9	11,8
3,4025	7,2	11,4
3,403	7,4	10,7
3,4035	6,4	9,9
3,404	4,1	9,3
3,4045	1,1	9,1
3,405	-2,3	9,7
3,4055	-5,6	10,8
3,406	-8,9	12,3
3,4065	-11,4	13,8
3,407	-12,4	15,2
3,4075	-11,4	16,2
3,408	-8,4	16,9
3,4085	-4,1	17,2
3,409	0,5	17,1
3,4095	4,2	16,6
3,41	6,5	15,9
3,4105	7,7	15,2
3,411	8,2	14,3
3,4115	8,5	13,3
3,412	9,8	12,3
3,4125	13,0	11,3
3,413	18,3	10,3
3,4135	24,4	9,3
3,414	29,6	8,3
3,4145	32,8	7,4
3,415	33,9	6,9
3,4155	33,7	6,9
3,416	32,8	7,6
3,4165	31,6	8,8
3,417	30,3	10,3
3,4175	28,9	11,8
3,418	27,2	12,9
3,4185	24,4	13,3
3,419	20,2	13,0
3,4195	15,1	12,3
3,42	9,5	11,9
3,4205	3,2	12,0
3,421	-3,8	12,7
3,4215	-11,0	13,3
3,422	-17,7	13,8
3,4225	-23,9	13,9
3,423	-29,6	13,7
3,4235	-34,6	13,3
3,424	-38,1	12,7
3,4245	-39,6	12,0
3,425	-39,1	11,5
3,4255	-36,7	11,4
3,426	-32,2	11,5
3,4265	-24,6	11,8
3,427	-13,8	12,3
3,4275	-1,6	12,8
3,428	9,2	13,4
3,4285	16,3	13,7
3,429	19,4	13,5
3,4295	18,9	12,9
3,43	15,6	12,0
3,4305	10,3	11,0
3,431	4,6	9,9
3,4315	-0,5	8,7
3,432	-4,6	7,5
3,4325	-8,1	6,6
3,433	-11,9	6,1
3,4335	-16,1	6,0
3,434	-20,2	6,6
3,4345	-23,8	7,6
3,435	-26,7	8,9
3,4355	-27,7	10,2
3,436	-24,3	11,1
3,4365	-14,5	11,5
3,437	1,1	11,6
3,4375	19,0	11,5
3,438	35,5	11,7
3,4385	48,6	11,7
3,439	56,8	11,4
3,4395	59,4	11,0
3,44	56,2	10,4
3,4405	48,5	10,1
3,441	37,8	10,0
3,4415	25,2	10,4
3,442	11,4	10,9
3,4425	-2,8	11,5
3,443	-16,4	11,9
3,4435	-27,8	12,1
3,444	-35,6	12,2
3,4445	-38,3	12,2
3,445	-34,9	12,4
3,4455	-26,0	12,8
3,446	-13,6	13,2
3,4465	-0,8	13,3
3,447	10,0	13,1
3,4475	17,8	12,7
3,448	22,9	12,2
3,4485	26,7	11,9
3,449	30,6	11,9
3,4495	35,5	12,2
3,45	40,9	12,5
3,4505	45,4	13,1
3,451	47,3	13,8
3,4515	45,2	14,4
3,452	38,8	14,6
3,4525	29,2	14,2
3,453	17,8	13,1
3,4535	6,0	11,7
3,454	-5,3	9,8
3,4545	-15,2	7,8
3,455	-22,8	6,1
3,4555	-27,8	5,3
3,456	-30,6	5,6
3,4565	-31,8	6,7
3,457	-31,6	8,0
3,4575	-29,9	8,9
3,458	-26,9	9,3
3,4585	-23,1	9,5
3,459	-18,9	9,6
3,4595	-14,7	9,7
3,46	-10,5	9,8
3,4605	-6,6	10,0
3,461	-3,6	10,2
3,4615	-1,9	10,5
3,462	-1,2	10,8
3,4625	-0,5	10,8
3,463	0,9	10,6
3,4635	3,1	10,0
3,464	5,8	9,2
3,4645	8,2	8,1
3,465	9,9	6,8
3,4655	11,0	5,8
3,466	12,0	5,3
3,4665	13,9	5,3
3,467	16,5	5,6
3,4675	19,1	6,0
3,468	21,3	6,5
3,4685	23,1	6,6
3,469	24,6	6,4
3,4695	25,7	5,9
3,47	25,8	5,5
3,4705	24,9	5,3
3,471	23,7	5,7
3,4715	22,6	6,6
3,472	21,2	7,9
3,4725	19,0	9,1
3,473	15,9	10,0
3,4735	12,6	10,5
3,474	9,8	10,3
3,4745	8,6	9,7
3,475	9,3	8,8
3,4755	11,5	8,0
3,476	14,1	7,5
3,4765	16,3	7,3
3,477	17,5	7,4
3,4775	17,3	7,9
3,478	15,3	8,7
3,4785	12,4	9,9
3,479	9,8	11,3
3,4795	8,3	12,5
