Interval=	0,0005 s
ExcelDateTime=	4,5911516601310541e+004	11/09/2025 12:23:54,35323
TimeFormat=	StartOfBlock
DateFormat=	
ChannelTitle=	Biceps	Triceps
Range=	1000,0 µV	1000,0 µV
0	-0,1	0,0
0,0005	-0,5	0,2
0,001	-1,8	0,8
0,0015	-3,4	1,6
0,002	-5,0	2,5
0,0025	-5,9	3,5
0,003	-6,5	4,7
0,0035	-7,3	6,1
0,004	-8,6	7,7
0,0045	-10,0	9,0
0,005	-11,3	9,8
0,0055	-12,6	10,2
0,006	-14,1	10,2
0,0065	-15,9	10,0
0,007	-17,8	10,0
0,0075	-19,2	10,2
0,008	-19,5	10,3
0,0085	-19,0	10,1
0,009	-18,3	9,8
0,0095	-17,8	9,4
0,01	-16,5	9,1
0,0105	-13,7	8,8
0,011	-9,0	8,6
0,0115	-3,7	8,2
0,012	0,7	7,6
0,0125	2,9	7,4
0,013	2,8	7,7
0,0135	0,6	8,7
0,014	-3,9	9,9
0,0145	-10,8	11,1
0,015	-20,4	11,8
0,0155	-31,3	11,8
0,016	-42,3	11,2
0,0165	-52,0	10,2
0,017	-60,1	9,1
0,0175	-66,2	8,2
0,018	-70,2	7,6
0,0185	-72,0	7,3
0,019	-71,3	7,2
0,0195	-67,6	7,4
0,02	-61,2	8,0
0,0205	-53,4	8,8
0,021	-44,9	9,4
0,0215	-36,1	9,8
0,022	-26,7	9,7
0,0225	-17,0	9,4
0,023	-7,9	8,9
0,0235	-0,3	8,4
0,024	5,6	8,0
0,0245	9,5	7,8
0,025	11,9	7,7
0,0255	13,3	7,8
0,026	13,3	7,9
0,0265	12,3	8,0
0,027	11,1	7,8
0,0275	11,0	7,4
0,028	12,6	6,9
0,0285	15,3	6,9
0,029	18,7	7,6
0,0295	21,7	8,9
0,03	23,0	10,7
0,0305	21,5	12,4
0,031	16,8	13,7
0,0315	9,7	14,3
0,032	0,9	14,3
0,0325	-8,7	13,7
0,033	-18,2	12,4
0,0335	-26,1	10,7
0,034	-31,3	9,0
0,0345	-33,9	7,7
0,035	-34,9	6,9
0,0355	-34,9	6,7
0,036	-34,0	6,9
0,0365	-31,8	7,4
0,037	-27,9	8,2
0,0375	-22,6	8,6
0,038	-16,4	8,3
0,0385	-10,4	7,3
0,039	-5,5	6,0
0,0395	-2,3	4,7
0,04	-1,1	3,5
0,0405	-1,5	3,1
0,041	-3,0	3,5
0,0415	-4,5	4,6
0,042	-5,7	6,2
0,0425	-6,3	7,6
0,043	-6,7	8,7
0,0435	-6,9	9,2
0,044	-7,3	9,2
0,0445	-8,1	8,8
0,045	-8,7	8,0
0,0455	-8,7	7,3
0,046	-7,5	7,1
0,0465	-5,1	7,2
0,047	-1,8	7,4
0,0475	1,5	7,3
0,048	4,1	7,0
0,0485	5,7	6,5
0,049	6,0	6,3
0,0495	4,9	6,3
0,05	2,6	6,7
0,0505	-0,8	7,1
0,051	-4,5	7,6
0,0515	-7,4	8,3
0,052	-8,1	8,9
0,0525	-6,1	9,3
0,053	-2,1	9,3
0,0535	2,8	9,2
0,054	7,6	9,2
0,0545	11,9	9,1
0,055	15,1	8,8
0,0555	16,8	8,5
0,056	16,7	8,3
0,0565	15,0	8,1
0,057	11,8	8,0
0,0575	7,3	7,8
0,058	2,4	7,3
0,0585	-1,8	6,8
0,059	-4,7	6,7
0,0595	-6,5	6,8
0,06	-7,8	7,3
0,0605	-8,8	7,8
0,061	-9,4	8,4
0,0615	-9,7	8,8
0,062	-10,0	8,7
0,0625	-11,0	7,9
0,063	-12,7	6,9
0,0635	-14,9	6,3
0,064	-18,0	6,3
0,0645	-22,0	6,4
0,065	-26,0	6,1
0,0655	-28,4	5,3
0,066	-27,4	4,5
0,0665	-22,2	3,9
0,067	-13,3	3,5
0,0675	-2,3	3,2
0,068	8,7	3,0
0,0685	18,2	2,9
0,069	24,8	2,8
0,0695	27,5	2,7
0,07	25,9	2,5
0,0705	20,1	2,5
0,071	11,3	2,4
0,0715	0,8	2,0
0,072	-10,1	1,3
0,0725	-20,1	0,9
0,073	-28,2	1,0
0,0735	-34,3	1,4
0,074	-39,0	2,1
0,0745	-43,5	2,9
0,075	-48,4	3,9
0,0755	-53,2	4,9
0,076	-57,7	5,8
0,0765	-61,5	6,4
0,077	-64,0	6,3
0,0775	-64,0	5,7
0,078	-61,2	4,6
0,0785	-56,0	3,6
0,079	-49,9	2,8
0,0795	-43,9	2,7
0,08	-38,7	2,8
0,0805	-34,9	3,2
0,081	-33,1	3,7
0,0815	-33,6	4,0
0,082	-35,6	4,0
0,0825	-37,2	3,5
0,083	-37,3	2,5
0,0835	-36,2	1,3
0,084	-34,5	0,6
0,0845	-32,6	0,3
0,085	-30,6	0,4
0,0855	-28,8	0,7
0,086	-27,2	1,1
0,0865	-25,6	1,4
0,087	-23,8	1,8
0,0875	-22,1	2,3
0,088	-21,5	2,6
0,0885	-22,6	2,8
0,089	-25,2	2,8
0,0895	-28,9	2,6
0,09	-33,2	2,2
0,0905	-37,8	1,6
0,091	-42,2	1,2
0,0915	-44,4	1,1
0,092	-41,8	1,3
0,0925	-33,0	1,5
0,093	-19,6	1,8
0,0935	-5,1	1,9
0,094	7,5	1,6
0,0945	16,5	0,6
0,095	20,4	-1,0
0,0955	17,1	-3,0
0,096	4,6	-4,7
0,0965	-16,4	-5,7
0,097	-41,8	-6,0
0,0975	-66,3	-5,8
0,098	-86,6	-5,6
0,0985	-101,7	-5,4
0,099	-111,7	-5,3
0,0995	-116,8	-5,3
0,1	-118,2	-5,1
0,1005	-117,0	-4,6
0,101	-114,3	-3,9
0,1015	-110,5	-3,0
0,102	-106,2	-1,9
0,1025	-102,2	-0,5
0,103	-98,7	0,9
0,1035	-94,9	2,0
0,104	-89,8	2,7
0,1045	-83,1	3,0
0,105	-75,3	3,1
0,1055	-67,0	3,3
0,106	-57,8	3,5
0,1065	-46,5	3,6
0,107	-33,0	3,5
0,1075	-18,3	3,1
0,108	-4,1	2,4
0,1085	8,8	1,6
0,109	20,5	0,5
0,1095	31,3	-0,7
0,11	41,0	-1,7
0,1105	48,6	-2,4
0,111	52,7	-2,9
0,1115	53,1	-3,5
0,112	50,2	-4,2
0,1125	45,7	-4,6
0,113	41,0	-4,7
0,1135	37,2	-4,3
0,114	34,8	-3,6
0,1145	33,6	-2,6
0,115	33,5	-1,5
0,1155	33,7	-0,3
0,116	33,6	0,8
0,1165	32,6	1,7
0,117	30,2	2,3
0,1175	26,1	2,6
0,118	21,0	2,7
0,1185	15,9	2,6
0,119	12,0	2,5
0,1195	9,2	2,6
0,12	6,3	2,8
0,1205	2,7	2,9
0,121	-1,8	2,8
0,1215	-6,3	2,5
0,122	-10,1	2,2
0,1225	-12,3	2,0
0,123	-11,1	2,2
0,1235	-5,8	2,7
0,124	3,4	3,4
0,1245	14,8	3,9
0,125	26,3	4,1
0,1255	35,6	4,0
0,126	41,1	3,6
0,1265	42,0	3,2
0,127	38,7	2,8
0,1275	32,3	2,8
0,128	24,7	3,1
0,1285	17,0	3,8
0,129	9,5	4,6
0,1295	2,1	5,7
0,13	-5,3	6,8
0,1305	-12,3	8,1
0,131	-18,6	9,3
0,1315	-23,3	10,3
0,132	-25,5	11,0
0,1325	-25,0	11,2
0,133	-22,8	11,2
0,1335	-20,1	11,1
0,134	-17,4	11,2
0,1345	-14,4	11,5
0,135	-10,9	11,8
0,1355	-7,7	11,8
0,136	-4,9	11,8
0,1365	-2,9	11,7
0,137	-1,4	11,7
0,1375	-0,1	11,6
0,138	1,3	11,5
0,1385	3,0	11,4
0,139	4,9	11,7
0,1395	6,6	12,1
0,14	7,6	12,6
0,1405	7,6	13,3
0,141	6,9	14,3
0,1415	5,5	15,3
0,142	3,4	16,4
0,1425	1,5	17,1
0,143	0,3	17,3
0,1435	0,2	17,2
0,144	1,0	17,3
0,1445	2,2	17,2
0,145	3,8	16,5
0,1455	5,8	15,1
0,146	7,6	13,4
0,1465	8,8	12,3
0,147	9,1	12,1
0,1475	8,8	12,4
0,148	8,3	13,0
0,1485	7,8	13,5
0,149	7,9	13,8
0,1495	8,5	13,8
0,15	9,7	13,6
0,1505	11,0	13,3
0,151	12,2	12,8
0,1515	12,9	12,2
0,152	12,8	11,8
0,1525	11,6	11,6
0,153	9,4	11,3
0,1535	6,6	10,8
0,154	3,5	9,9
0,1545	0,7	8,7
0,155	-1,5	7,5
0,1555	-2,6	6,7
0,156	-2,8	6,3
0,1565	-2,5	6,3
0,157	-2,3	6,8
0,1575	-3,1	7,7
0,158	-5,1	9,3
0,1585	-7,8	11,2
0,159	-10,1	13,2
0,1595	-10,9	14,8
0,16	-9,9	16,0
0,1605	-7,4	16,8
0,161	-4,4	17,1
0,1615	-1,5	16,9
0,162	0,6	16,3
0,1625	1,8	15,7
0,163	2,3	15,1
0,1635	2,3	14,7
0,164	2,3	14,4
0,1645	2,2	14,0
0,165	2,2	13,4
0,1655	2,5	12,6
0,166	3,1	11,6
0,1665	4,0	10,7
0,167	5,1	10,0
0,1675	6,3	9,7
0,168	7,6	9,8
0,1685	8,9	10,3
0,169	9,8	10,8
0,1695	10,3	11,6
0,17	10,4	12,4
0,1705	10,1	13,0
0,171	9,6	13,0
0,1715	9,1	12,5
0,172	9,0	11,5
0,1725	9,5	10,4
0,173	10,4	9,6
0,1735	11,3	9,2
0,174	11,9	9,2
0,1745	12,1	9,5
0,175	11,8	10,0
0,1755	11,2	10,6
0,176	10,4	11,4
0,1765	9,4	12,2
0,177	8,1	12,8
0,1775	6,3	12,8
0,178	4,2	12,3
0,1785	1,9	11,4
0,179	-0,4	10,5
0,1795	-2,8	10,0
0,18	-4,8	10,3
0,1805	-5,7	11,2
0,181	-4,7	12,4
0,1815	-2,0	13,3
0,182	1,5	13,3
0,1825	4,8	12,5
0,183	7,8	11,2
0,1835	11,2	9,7
0,184	15,8	8,6
0,1845	22,2	7,8
0,185	29,4	7,6
0,1855	36,5	7,8
0,186	42,7	8,1
0,1865	47,7	8,6
0,187	51,8	9,1
0,1875	55,4	9,4
0,188	58,7	9,6
0,1885	61,1	10,0
0,189	61,6	10,5
0,1895	60,0	11,1
0,19	56,6	11,6
0,1905	51,4	11,8
0,191	44,5	11,8
0,1915	36,0	11,6
0,192	26,3	11,2
0,1925	15,8	11,0
0,193	5,6	11,4
0,1935	-3,9	12,4
0,194	-12,2	13,4
0,1945	-19,0	13,8
0,195	-23,9	13,3
0,1955	-26,9	12,3
0,196	-28,1	11,5
0,1965	-28,0	11,0
0,197	-27,1	10,7
0,1975	-25,8	10,2
0,198	-24,5	9,7
0,1985	-23,0	9,3
0,199	-21,2	8,9
0,1995	-19,1	8,8
0,2	-16,8	9,0
0,2005	-14,5	9,4
0,201	-12,5	9,9
0,2015	-11,1	10,3
0,202	-10,4	10,7
0,2025	-10,3	11,2
0,203	-10,5	11,8
0,2035	-11,1	12,6
0,204	-11,3	13,3
0,2045	-10,3	13,5
0,205	-7,9	13,2
0,2055	-4,7	12,7
0,206	-0,7	12,4
0,2065	4,3	12,3
0,207	10,5	12,3
0,2075	17,3	12,3
0,208	23,6	12,3
0,2085	28,6	12,3
0,209	31,9	12,5
0,2095	33,5	13,0
0,21	33,3	13,7
0,2105	31,4	14,6
0,211	27,8	15,3
0,2115	22,7	15,6
0,212	16,8	15,6
0,2125	10,5	15,7
0,213	3,8	16,4
0,2135	-3,1	17,4
0,214	-10,1	18,4
0,2145	-17,0	18,6
0,215	-22,9	17,9
0,2155	-26,7	16,6
0,216	-27,8	15,6
0,2165	-26,1	15,2
0,217	-21,6	15,4
0,2175	-14,7	15,8
0,218	-6,7	16,2
0,2185	0,6	16,7
0,219	6,1	17,3
0,2195	9,7	17,8
0,22	11,3	18,1
0,2205	11,0	18,2
0,221	9,1	18,0
0,2215	5,8	17,8
0,222	1,8	17,8
0,2225	-1,6	18,2
0,223	-3,8	18,8
0,2235	-4,4	19,2
0,224	-3,7	19,2
0,2245	-2,0	18,6
0,225	0,0	17,8
0,2255	2,1	16,8
0,226	3,8	15,8
0,2265	4,3	15,2
0,227	2,8	15,0
0,2275	-0,5	15,1
0,228	-4,5	15,1
0,2285	-7,9	14,9
0,229	-10,3	14,9
0,2295	-11,8	15,4
0,23	-12,1	16,4
0,2305	-10,8	17,4
0,231	-7,6	18,1
0,2315	-3,0	18,2
0,232	2,2	17,7
0,2325	8,0	17,1
0,233	14,7	16,5
0,2335	22,9	16,0
0,234	31,9	15,8
0,2345	39,7	15,7
0,235	45,0	15,8
0,2355	47,2	16,2
0,236	47,3	16,7
0,2365	46,0	17,4
0,237	44,1	18,3
0,2375	41,9	19,0
0,238	39,9	19,6
0,2385	38,5	19,7
0,239	38,1	19,4
0,2395	38,8	19,2
0,24	40,5	19,3
0,2405	43,3	20,0
0,241	45,9	20,7
0,2415	47,1	21,1
0,242	46,2	20,9
0,2425	43,5	20,3
0,243	40,6	19,5
0,2435	38,7	18,7
0,244	37,8	18,1
0,2445	36,9	17,5
0,245	35,1	16,9
0,2455	31,7	16,6
0,246	26,8	16,9
0,2465	20,7	17,7
0,247	14,1	18,8
0,2475	7,6	19,7
0,248	1,2	20,3
0,2485	-4,9	20,6
0,249	-10,4	20,7
0,2495	-15,0	20,6
0,25	-18,5	20,2
0,2505	-21,0	19,8
0,251	-22,5	19,5
0,2515	-22,5	19,5
0,252	-21,0	19,8
0,2525	-17,5	20,3
0,253	-12,3	20,7
0,2535	-5,8	21,0
0,254	1,2	21,2
0,2545	7,7	21,1
0,255	13,1	21,0
0,2555	16,6	21,0
0,256	18,7	21,1
0,2565	20,4	21,2
0,257	23,1	21,1
0,2575	27,4	20,5
0,258	32,7	19,6
0,2585	37,1	18,4
0,259	39,5	17,3
0,2595	40,0	16,3
0,26	39,2	15,7
0,2605	37,6	15,5
0,261	35,4	15,9
0,2615	33,0	16,7
0,262	30,8	17,5
0,2625	28,7	18,2
0,263	26,3	19,1
0,2635	23,0	20,3
0,264	18,2	21,8
0,2645	11,9	23,0
0,265	5,1	23,6
0,2655	-0,8	23,6
0,266	-4,8	23,1
0,2665	-7,1	22,4
0,267	-8,0	21,5
0,2675	-8,2	20,7
0,268	-7,8	20,0
0,2685	-7,4	19,3
0,269	-7,2	18,9
0,2695	-7,3	19,1
0,27	-7,5	20,1
0,2705	-7,0	21,7
0,271	-5,8	23,2
0,2715	-3,9	23,9
0,272	-1,4	23,7
0,2725	1,8	22,9
0,273	5,9	22,0
0,2735	10,5	21,3
0,274	15,0	21,3
0,2745	18,7	21,7
0,275	21,2	22,3
0,2755	22,5	22,6
0,276	23,1	22,3
0,2765	23,3	21,3
0,277	23,5	19,9
0,2775	23,5	18,8
0,278	23,5	18,1
0,2785	23,7	18,2
0,279	24,2	19,1
0,2795	24,7	20,8
0,28	24,6	22,5
0,2805	23,6	24,0
0,281	21,8	24,8
0,2815	19,8	25,0
0,282	18,3	24,6
0,2825	17,8	24,0
0,283	17,5	23,1
0,2835	17,3	22,2
0,284	17,6	21,2
0,2845	19,4	20,2
0,285	22,8	19,3
0,2855	27,1	18,5
0,286	31,1	18,2
0,2865	33,9	18,5
0,287	35,0	19,6
0,2875	34,3	21,3
0,288	31,5	22,7
0,2885	26,3	23,4
0,289	18,7	23,2
0,2895	8,9	22,4
0,29	-1,3	21,6
0,2905	-10,4	21,3
0,291	-17,3	21,8
0,2915	-22,0	22,8
0,292	-25,4	23,9
0,2925	-28,3	25,1
0,293	-30,5	25,9
0,2935	-31,8	26,3
0,294	-31,3	26,0
0,2945	-28,7	25,4
0,295	-24,7	24,6
0,2955	-20,1	23,9
0,296	-16,1	23,5
0,2965	-12,7	23,5
0,297	-9,0	23,6
0,2975	-4,6	23,6
0,298	0,1	23,4
0,2985	3,8	23,0
0,299	5,3	22,3
0,2995	4,6	21,5
0,3	2,8	20,7
0,3005	1,4	20,3
0,301	1,1	20,3
0,3015	2,1	20,5
0,302	4,3	20,7
0,3025	8,2	20,7
0,303	14,1	20,8
0,3035	22,4	20,9
0,304	32,8	20,8
0,3045	44,0	20,2
0,305	54,0	19,4
0,3055	61,2	18,7
0,306	64,9	17,9
0,3065	65,2	17,1
0,307	62,6	16,6
0,3075	57,8	16,7
0,308	51,1	17,8
0,3085	43,4	19,7
0,309	35,1	21,9
0,3095	26,7	23,9
0,31	18,3	25,3
0,3105	10,0	25,6
0,311	2,3	24,8
0,3115	-4,4	23,3
0,312	-10,5	21,5
0,3125	-16,1	20,1
0,313	-21,1	19,4
0,3135	-24,9	19,1
0,314	-27,3	19,0
0,3145	-28,1	19,0
0,315	-27,0	19,2
0,3155	-24,4	19,4
0,316	-20,4	19,2
0,3165	-15,6	18,8
0,317	-10,6	18,1
0,3175	-5,7	17,5
0,318	-0,9	17,2
0,3185	3,5	17,1
0,319	7,5	17,3
0,3195	10,6	17,9
0,32	12,9	19,1
0,3205	14,6	20,5
0,321	15,9	21,8
0,3215	16,9	22,7
0,322	17,2	23,2
0,3225	16,4	23,6
0,323	14,6	23,8
0,3235	12,3	23,8
0,324	9,8	23,7
0,3245	6,7	23,4
0,325	2,9	23,5
0,3255	-1,0	24,1
0,326	-3,9	25,1
0,3265	-5,3	26,0
0,327	-5,4	26,4
0,3275	-4,7	26,0
0,328	-3,4	24,8
0,3285	-1,8	23,3
0,329	0,7	22,0
0,3295	3,9	21,3
0,33	7,5	21,3
0,3305	10,5	21,8
0,331	12,5	22,1
0,3315	13,6	22,2
0,332	14,2	22,0
0,3325	14,7	21,6
0,333	15,0	21,1
0,3335	15,4	20,7
0,334	15,9	20,5
0,3345	16,5	20,4
0,335	17,0	20,3
0,3355	17,3	20,2
0,336	17,2	20,1
0,3365	17,0	20,3
0,337	17,7	20,7
0,3375	20,0	21,3
0,338	24,2	21,8
0,3385	29,4	22,0
0,339	34,3	22,0
0,3395	37,6	22,0
0,34	38,7	22,1
0,3405	37,4	22,2
0,341	34,3	22,2
0,3415	29,7	22,2
0,342	24,6	22,2
0,3425	19,8	22,4
0,343	15,9	22,8
0,3435	12,7	23,5
0,344	10,0	24,2
0,3445	7,8	24,5
0,345	5,9	24,3
0,3455	3,8	23,6
0,346	1,0	23,0
0,3465	-2,3	22,7
0,347	-4,9	22,3
0,3475	-6,1	21,8
0,348	-5,8	21,1
0,3485	-4,4	20,3
0,349	-2,6	19,5
0,3495	-0,9	18,8
0,35	0,5	18,2
0,3505	1,6	17,6
0,351	2,7	17,2
0,3515	3,5	17,2
0,352	3,6	17,8
0,3525	2,7	18,5
0,353	0,8	19,3
0,3535	-1,4	19,8
0,354	-3,0	19,9
0,3545	-3,2	19,4
0,355	-1,8	18,3
0,3555	0,8	17,4
0,356	5,2	16,7
0,3565	11,7	16,7
0,357	20,1	17,3
0,3575	28,9	18,6
0,358	36,2	19,9
0,3585	41,1	20,8
0,359	43,5	21,3
0,3595	43,8	21,7
0,36	42,1	21,7
0,3605	38,4	21,6
0,361	33,3	21,5
0,3615	27,4	21,3
0,362	21,8	21,2
0,3625	16,9	21,0
0,363	12,8	20,9
0,3635	9,6	21,0
0,364	7,2	21,2
0,3645	5,8	21,1
0,365	5,3	20,6
0,3655	5,9	19,7
0,366	7,7	18,5
0,3665	10,3	17,4
0,367	13,2	16,7
0,3675	15,8	16,4
0,368	17,7	16,5
0,3685	18,6	17,0
0,369	19,0	17,8
0,3695	19,3	18,8
0,37	19,7	19,7
0,3705	19,6	20,0
0,371	18,7	19,5
0,3715	17,1	18,5
0,372	15,0	17,1
0,3725	12,6	15,8
0,373	9,9	14,8
0,3735	7,3	14,4
0,374	5,0	14,5
0,3745	3,3	15,2
0,375	2,3	16,0
0,3755	1,7	16,6
0,376	1,7	16,8
0,3765	2,6	16,6
0,377	4,4	16,6
0,3775	6,5	16,7
0,378	8,3	16,7
0,3785	9,3	16,3
0,379	9,3	15,8
0,3795	7,8	15,4
0,38	5,4	15,7
0,3805	3,4	16,4
0,381	3,2	17,3
0,3815	5,1	17,7
0,382	8,3	17,3
0,3825	11,2	16,1
0,383	12,6	14,8
0,3835	12,7	13,9
0,384	12,1	13,7
0,3845	11,6	14,0
0,385	11,6	14,3
0,3855	11,9	14,7
0,386	12,3	14,8
0,3865	12,8	14,8
0,387	13,1	14,9
0,3875	12,8	14,9
0,388	11,8	14,8
0,3885	10,4	14,7
0,389	9,1	14,6
0,3895	7,7	14,8
0,39	5,8	15,0
0,3905	3,1	15,0
0,391	-0,2	15,0
0,3915	-3,7	15,3
0,392	-6,8	15,9
0,3925	-9,4	16,8
0,393	-11,6	18,0
0,3935	-13,7	19,2
0,394	-15,7	20,3
0,3945	-17,9	20,8
0,395	-20,5	20,2
0,3955	-22,9	18,6
0,396	-24,3	16,5
0,3965	-23,7	14,9
0,397	-20,3	14,1
0,3975	-14,1	14,1
0,398	-6,2	14,5
0,3985	1,9	14,9
0,399	8,1	15,0
0,3995	11,6	14,6
0,4	12,3	13,8
0,4005	11,4	12,8
0,401	10,0	12,1
0,4015	8,5	11,8
0,402	6,8	11,8
0,4025	4,7	12,1
0,403	1,8	12,6
0,4035	-1,3	13,1
0,404	-3,9	13,5
0,4045	-5,4	13,5
0,405	-5,7	13,6
0,4055	-5,4	13,8
0,406	-5,3	14,2
0,4065	-4,9	14,8
0,407	-4,3	15,2
0,4075	-5,1	15,3
0,408	-8,1	14,9
0,4085	-10,9	14,7
0,409	-9,4	14,9
0,4095	-2,0	15,5
0,41	8,6	16,3
0,4105	18,5	17,2
0,411	25,4	18,1
0,4115	29,2	18,7
0,412	30,8	18,8
0,4125	30,6	18,5
0,413	28,0	17,9
0,4135	21,9	17,1
0,414	12,6	16,3
0,4145	1,1	15,4
0,415	-10,6	14,5
0,4155	-20,7	13,4
0,416	-27,8	12,3
0,4165	-30,8	11,3
0,417	-29,7	11,0
0,4175	-24,8	11,3
0,418	-17,3	12,0
0,4185	-8,5	12,8
0,419	1,8	13,6
0,4195	15,1	14,5
0,42	32,0	15,4
0,4205	50,7	16,3
0,421	67,2	16,8
0,4215	78,1	17,2
0,422	81,7	17,4
0,4225	78,4	17,4
0,423	69,9	17,2
0,4235	58,0	16,7
0,424	43,8	16,3
0,4245	28,1	16,0
0,425	12,3	16,1
0,4255	-1,6	16,4
0,426	-11,8	17,0
0,4265	-18,0	17,3
0,427	-20,9	17,1
0,4275	-21,5	16,1
0,428	-20,4	14,4
0,4285	-17,4	12,5
0,429	-12,8	10,8
0,4295	-6,0	9,7
0,43	3,4	9,3
0,4305	15,5	9,3
0,431	28,8	9,6
0,4315	41,4	9,8
0,432	51,9	9,7
0,4325	60,2	9,5
0,433	65,9	9,1
0,4335	68,6	8,8
0,434	67,7	8,6
0,4345	62,9	8,9
0,435	53,8	9,7
0,4355	40,7	10,9
0,436	25,4	12,5
0,4365	10,4	14,2
0,437	-2,1	15,7
0,4375	-11,3	16,8
0,438	-17,0	17,5
0,4385	-19,1	17,8
0,439	-18,0	17,7
0,4395	-14,8	17,7
0,44	-11,2	17,7
0,4405	-8,3	17,6
0,441	-6,2	16,9
0,4415	-3,9	15,6
0,442	-1,1	13,8
0,4425	2,4	12,1
0,443	6,1	11,1
0,4435	9,3	10,9
0,444	11,3	11,2
0,4445	11,8	11,8
0,445	11,5	12,4
0,4455	10,8	12,8
0,446	10,1	12,7
0,4465	9,2	12,5
0,447	7,8	12,5
0,4475	6,1	12,5
0,448	4,2	12,3
0,4485	2,5	11,6
0,449	1,2	10,5
0,4495	0,3	9,3
0,45	-0,2	8,6
0,4505	-0,1	8,4
0,451	0,5	8,6
0,4515	1,6	8,7
0,452	2,9	8,5
0,4525	4,7	7,9
0,453	6,9	7,3
0,4535	9,4	7,1
0,454	12,0	7,2
0,4545	14,5	7,3
0,455	16,6	7,4
0,4555	18,2	7,6
0,456	18,8	7,8
0,4565	17,9	8,0
0,457	15,8	8,3
0,4575	12,6	8,7
0,458	9,0	9,2
0,4585	5,6	9,5
0,459	2,8	9,6
0,4595	1,0	9,6
0,46	-0,1	9,7
0,4605	-0,9	9,8
0,461	-1,9	9,9
0,4615	-3,6	10,0
0,462	-5,8	10,1
0,4625	-7,8	10,5
0,463	-8,7	11,1
0,4635	-7,7	11,7
0,464	-5,0	12,0
0,4645	-1,9	11,9
0,465	0,6	11,6
0,4655	1,9	11,1
0,466	2,1	10,6
0,4665	1,7	10,3
0,467	1,2	10,0
0,4675	1,2	10,0
0,468	1,7	10,2
0,4685	2,2	10,6
0,469	2,1	11,0
0,4695	0,9	11,4
0,47	-1,5	11,7
0,4705	-4,2	11,8
0,471	-6,3	11,7
0,4715	-7,4	10,9
0,472	-7,9	9,8
0,4725	-8,2	8,7
0,473	-8,5	8,2
0,4735	-8,7	8,3
0,474	-8,6	9,0
0,4745	-8,2	9,8
0,475	-7,2	10,3
0,4755	-5,8	10,4
0,476	-4,1	10,4
0,4765	-1,8	10,3
0,477	1,0	9,9
0,4775	4,3	9,0
0,478	7,5	7,7
0,4785	10,5	6,3
0,479	12,8	5,4
0,4795	14,6	5,3
0,48	16,2	5,7
0,4805	17,8	6,5
0,481	19,6	7,2
0,4815	21,0	7,6
0,482	21,7	7,8
0,4825	21,5	7,9
0,483	20,3	7,7
0,4835	18,3	7,6
0,484	16,2	7,7
0,4845	14,3	8,3
0,485	12,8	9,5
0,4855	10,8	11,1
0,486	8,0	12,6
0,4865	4,9	13,9
0,487	2,6	14,7
0,4875	1,8	14,7
0,488	2,3	14,1
0,4885	3,7	13,2
0,489	5,3	12,5
0,4895	6,6	12,3
0,49	7,4	12,2
0,4905	7,4	12,1
0,491	6,1	12,0
0,4915	3,3	11,8
0,492	-0,4	11,9
0,4925	-4,5	12,2
0,493	-8,2	12,6
0,4935	-11,2	12,8
0,494	-13,2	12,7
0,4945	-14,1	12,0
0,495	-14,0	11,0
0,4955	-13,1	10,0
0,496	-12,2	9,2
0,4965	-11,3	8,8
0,497	-9,7	9,0
0,4975	-7,3	9,6
0,498	-4,2	10,1
0,4985	-1,0	10,1
0,499	1,9	9,1
0,4995	4,1	7,2
0,5	5,1	5,1
0,5005	5,1	3,7
0,501	4,9	3,4
0,5015	5,3	4,1
0,502	6,7	5,7
0,5025	8,8	7,4
0,503	11,2	8,7
0,5035	13,2	9,3
0,504	14,6	9,4
0,5045	15,0	9,2
0,505	14,1	8,9
0,5055	11,6	8,5
0,506	7,8	8,1
0,5065	3,1	7,4
0,507	-2,2	6,8
0,5075	-7,5	6,1
0,508	-11,7	5,8
0,5085	-14,3	5,7
0,509	-15,5	6,0
0,5095	-16,6	6,3
0,51	-18,2	6,7
0,5105	-20,1	6,9
0,511	-21,6	7,0
0,5115	-22,2	7,1
0,512	-21,4	7,3
0,5125	-18,7	7,9
0,513	-13,2	8,7
0,5135	-5,0	9,5
0,514	4,7	9,8
0,5145	13,9	9,3
0,515	20,9	8,5
0,5155	25,7	7,3
0,516	28,6	6,0
0,5165	29,7	4,7
0,517	28,8	3,3
0,5175	26,1	2,5
0,518	22,0	2,6
0,5185	17,6	3,7
0,519	13,5	5,2
0,5195	10,2	6,7
0,52	7,5	7,9
0,5205	4,8	9,1
0,521	1,3	9,9
0,5215	-3,5	10,3
0,522	-10,0	10,2
0,5225	-17,4	9,6
0,523	-23,8	8,8
0,5235	-27,9	8,1
0,524	-29,3	7,8
0,5245	-29,0	8,3
0,525	-28,2	9,3
0,5255	-27,2	10,2
0,526	-26,1	10,6
0,5265	-24,8	10,4
0,527	-23,0	9,9
0,5275	-20,3	9,1
0,528	-16,1	8,0
0,5285	-10,5	7,1
0,529	-4,5	6,4
0,5295	0,5	6,3
0,53	3,3	6,5
0,5305	3,4	6,9
0,531	1,2	7,1
0,5315	-2,1	7,2
0,532	-4,5	7,2
0,5325	-4,4	7,2
0,533	-1,8	7,4
0,5335	1,9	7,7
0,534	5,1	8,0
0,5345	7,5	8,4
0,535	9,7	8,7
0,5355	12,5	8,7
0,536	15,3	8,3
0,5365	16,8	7,6
0,537	17,0	6,9
0,5375	16,9	6,3
0,538	17,7	5,8
0,5385	19,4	5,7
0,539	21,0	5,8
0,5395	21,5	6,3
0,54	20,6	6,8
0,5405	18,5	7,3
0,541	15,9	7,8
0,5415	12,5	7,8
0,542	8,1	7,5
0,5425	3,0	6,8
0,543	-2,1	6,2
0,5435	-6,5	5,8
0,544	-10,2	5,6
0,5445	-13,4	5,6
0,545	-16,5	5,4
0,5455	-19,5	5,3
0,546	-22,4	5,6
0,5465	-25,2	6,4
0,547	-27,5	7,4
0,5475	-29,1	8,4
0,548	-29,5	9,2
0,5485	-28,2	9,7
0,549	-25,3	10,0
0,5495	-21,3	10,3
0,55	-16,9	10,7
0,5505	-12,6	10,8
0,551	-8,5	10,4
0,5515	-5,2	9,8
0,552	-3,1	9,2
0,5525	-2,6	8,5
0,553	-3,5	7,8
0,5535	-5,6	7,1
0,554	-8,3	6,2
0,5545	-10,6	5,4
0,555	-11,8	4,8
0,5555	-11,8	4,7
0,556	-10,7	4,9
0,5565	-9,3	5,3
0,557	-8,0	5,4
0,5575	-7,4	5,3
0,558	-7,1	5,2
0,5585	-6,8	5,3
0,559	-6,5	5,8
0,5595	-6,6	6,3
0,56	-7,6	6,6
0,5605	-9,5	6,6
0,561	-11,8	6,1
0,5615	-14,0	5,4
0,562	-15,8	4,9
0,5625	-17,5	4,7
0,563	-19,3	4,9
0,5635	-21,0	5,4
0,564	-22,3	6,0
0,5645	-23,5	6,6
0,565	-24,8	7,1
0,5655	-25,7	7,3
0,566	-24,6	6,9
0,5665	-20,7	5,9
0,567	-14,7	4,8
0,5675	-8,0	3,9
0,568	-1,9	3,6
0,5685	2,8	3,8
0,569	5,6	4,5
0,5695	6,8	5,5
0,57	6,5	6,5
0,5705	5,1	7,1
0,571	2,6	7,1
0,5715	-0,5	6,7
0,572	-3,7	6,3
0,5725	-6,2	6,2
0,573	-7,2	6,4
0,5735	-6,5	6,8
0,574	-4,5	7,3
0,5745	-2,2	7,6
0,575	-0,8	8,0
0,5755	-0,8	8,3
0,576	-2,7	8,6
0,5765	-5,9	8,8
0,577	-9,6	8,7
0,5775	-13,1	8,2
0,578	-16,0	7,3
0,5785	-18,0	6,4
0,579	-18,0	5,8
0,5795	-14,9	6,3
0,58	-8,8	7,8
0,5805	-1,1	10,0
0,581	6,0	11,9
0,5815	10,9	12,8
0,582	12,9	12,4
0,5825	11,7	11,2
0,583	7,8	10,0
0,5835	2,2	9,0
0,584	-4,7	8,3
0,5845	-12,3	7,9
0,585	-20,2	7,8
0,5855	-27,7	7,9
0,586	-33,7	8,3
0,5865	-37,3	8,6
0,587	-38,4	8,8
0,5875	-37,6	8,8
0,588	-36,2	8,6
0,5885	-35,3	8,3
0,589	-34,8	8,2
0,5895	-33,7	8,2
0,59	-30,8	8,5
0,5905	-26,4	9,0
0,591	-21,6	9,7
0,5915	-18,0	10,3
0,592	-16,0	10,5
0,5925	-15,4	10,2
0,593	-14,9	9,6
0,5935	-13,8	8,9
0,594	-12,6	8,2
0,5945	-12,0	7,8
0,595	-12,3	7,5
0,5955	-12,9	7,4
0,596	-13,1	7,5
0,5965	-11,7	7,8
0,597	-7,8	8,2
0,5975	-1,4	8,5
0,598	6,7	8,5
0,5985	14,9	8,3
0,599	21,5	7,8
0,5995	25,8	7,3
0,6	28,7	7,0
0,6005	31,5	6,9
0,601	35,3	6,8
0,6015	39,9	6,6
0,602	44,3	6,2
0,6025	47,2	5,8
0,603	47,6	5,8
0,6035	46,8	6,4
0,604	46,7	7,6
0,6045	48,0	9,0
0,605	49,1	10,3
0,6055	48,1	11,3
0,606	44,1	12,0
0,6065	37,4	12,3
0,607	28,2	12,3
0,6075	16,5	12,3
0,608	3,2	12,0
0,6085	-10,3	11,5
0,609	-22,7	10,9
0,6095	-33,1	10,3
0,61	-41,0	9,6
0,6105	-46,6	9,0
0,611	-49,7	8,4
0,6115	-50,2	8,0
0,612	-47,9	7,7
0,6125	-43,3	7,7
0,613	-36,9	7,9
0,6135	-29,4	8,1
0,614	-22,0	8,1
0,6145	-15,4	7,8
0,615	-9,8	7,5
0,6155	-4,6	7,2
0,616	0,5	6,9
0,6165	5,1	6,7
0,617	8,5	6,5
0,6175	10,3	6,3
0,618	10,5	6,0
0,6185	9,5	5,9
0,619	8,2	6,0
0,6195	7,0	6,3
0,62	5,8	7,0
0,6205	4,5	7,7
0,621	3,4	8,4
0,6215	3,5	8,6
0,622	5,0	8,4
0,6225	7,6	8,1
0,623	10,4	8,0
0,6235	12,7	8,3
0,624	14,3	9,3
0,6245	14,8	10,7
0,625	14,5	12,2
0,6255	13,8	13,3
0,626	13,3	13,8
0,6265	13,3	13,8
0,627	13,8	13,3
0,6275	14,6	12,4
0,628	15,5	11,2
0,6285	16,4	9,8
0,629	17,0	8,7
0,6295	17,0	8,1
0,63	16,3	8,2
0,6305	15,2	8,7
0,631	13,4	9,2
0,6315	11,0	9,6
0,632	7,7	9,9
0,6325	4,2	10,4
0,633	1,3	10,9
0,6335	-0,3	11,3
0,634	-0,9	11,4
0,6345	-1,7	11,3
0,635	-2,8	11,1
0,6355	-4,4	10,8
0,636	-5,8	10,3
0,6365	-6,7	9,5
0,637	-7,0	8,6
0,6375	-7,0	7,7
0,638	-6,8	7,1
0,6385	-6,7	6,9
0,639	-6,5	7,4
0,6395	-6,3	8,6
0,64	-6,5	10,3
0,6405	-7,3	11,8
0,641	-8,3	13,0
0,6415	-8,7	13,5
0,642	-7,1	13,4
0,6425	-3,8	13,0
0,643	0,1	12,4
0,6435	3,0	11,8
0,644	4,6	11,1
0,6445	5,2	10,3
0,645	5,5	9,5
0,6455	5,5	9,1
0,646	5,0	9,1
0,6465	3,7	9,5
0,647	1,8	10,1
0,6475	-0,4	10,8
0,648	-2,6	11,6
0,6485	-4,6	12,3
0,649	-6,3	12,8
0,6495	-7,8	12,9
0,65	-9,4	12,9
0,6505	-11,3	13,0
0,651	-13,2	13,4
0,6515	-15,0	14,1
0,652	-16,7	14,6
0,6525	-17,8	14,9
0,653	-17,8	15,0
0,6535	-16,0	15,1
0,654	-12,7	15,3
0,6545	-7,9	15,3
0,655	-2,2	14,9
0,6555	3,4	14,1
0,656	7,9	13,0
0,6565	10,8	12,1
0,657	11,7	11,5
0,6575	10,5	11,4
0,658	7,8	11,7
0,6585	4,8	12,3
0,659	2,4	13,1
0,6595	1,4	13,9
0,66	1,7	14,4
0,6605	2,9	14,3
0,661	3,9	13,6
0,6615	3,9	12,7
0,662	2,9	11,9
0,6625	0,4	11,8
0,663	-3,3	12,5
0,6635	-7,8	13,4
0,664	-12,4	14,2
0,6645	-16,7	14,8
0,665	-21,0	15,3
0,6655	-25,5	15,6
0,666	-29,9	15,6
0,6665	-33,8	15,1
0,667	-36,8	14,4
0,6675	-38,3	13,7
0,668	-38,4	13,3
0,6685	-37,0	13,3
0,669	-34,5	13,7
0,6695	-31,5	14,2
0,67	-28,3	14,6
0,6705	-24,8	14,8
0,671	-20,8	15,2
0,6715	-16,5	15,8
0,672	-12,5	16,3
0,6725	-9,6	16,7
0,673	-7,8	16,8
0,6735	-6,9	16,8
0,674	-6,2	16,9
0,6745	-5,2	17,2
0,675	-3,8	17,3
0,6755	-1,0	17,4
0,676	4,1	17,4
0,6765	12,4	17,3
0,677	23,3	17,2
0,6775	33,8	17,0
0,678	41,5	16,6
0,6785	44,5	15,9
0,679	42,9	15,0
0,6795	37,2	14,4
0,68	28,0	14,5
0,6805	16,3	15,3
0,681	2,8	16,7
0,6815	-11,0	18,2
0,682	-24,2	19,5
0,6825	-36,0	20,2
0,683	-45,5	20,0
0,6835	-52,1	19,1
0,684	-55,4	17,7
0,6845	-56,1	16,4
0,685	-55,2	15,6
0,6855	-52,8	15,2
0,686	-49,3	14,8
0,6865	-44,8	14,3
0,687	-39,1	13,8
0,6875	-31,5	13,6
0,688	-21,9	13,6
0,6885	-11,8	13,5
0,689	-3,3	13,3
0,6895	2,3	12,5
0,69	4,9	11,6
0,6905	5,3	10,7
0,691	4,3	10,3
0,6915	1,8	10,5
0,692	-2,0	11,0
0,6925	-6,3	11,8
0,693	-10,1	12,4
0,6935	-12,6	12,7
0,694	-13,6	12,7
0,6945	-13,2	12,4
0,695	-11,6	11,9
0,6955	-8,9	11,5
0,696	-5,3	11,3
0,6965	-1,1	11,2
0,697	3,4	11,3
0,6975	7,4	11,6
0,698	10,7	11,8
0,6985	13,2	11,7
0,699	15,1	11,3
0,6995	16,7	10,7
0,7	18,2	10,2
0,7005	19,5	10,0
0,701	20,6	10,1
0,7015	20,8	10,3
0,702	20,4	10,6
0,7025	19,5	11,0
0,703	18,6	11,6
0,7035	17,5	12,2
0,704	15,8	12,8
0,7045	13,0	13,5
0,705	9,5	13,8
0,7055	6,4	13,3
0,706	4,5	11,9
0,7065	3,6	10,2
0,707	2,8	8,8
0,7075	1,2	8,3
0,708	-1,2	8,8
0,7085	-4,0	10,1
0,709	-6,5	11,6
0,7095	-8,4	12,8
0,71	-10,2	13,6
0,7105	-12,3	13,8
0,711	-14,5	13,3
0,7115	-16,3	12,7
0,712	-17,2	12,0
0,7125	-17,1	11,8
0,713	-16,4	12,0
0,7135	-15,3	12,3
0,714	-13,8	12,7
0,7145	-12,6	13,0
0,715	-11,7	13,3
0,7155	-11,3	13,7
0,716	-11,0	13,9
0,7165	-10,6	13,8
0,717	-10,0	13,4
0,7175	-9,3	12,8
0,718	-8,3	12,2
0,7185	-6,8	12,0
0,719	-5,0	12,1
0,7195	-3,2	12,2
0,72	-1,7	12,3
0,7205	-0,3	12,2
0,721	1,2	12,0
0,7215	3,2	11,7
0,722	5,9	11,4
0,7225	9,0	11,2
0,723	11,8	11,3
0,7235	13,6	11,6
0,724	13,7	12,0
0,7245	12,2	12,4
0,725	9,4	12,8
0,7255	5,6	13,2
0,726	0,7	13,4
0,7265	-5,4	13,8
0,727	-12,1	14,2
0,7275	-18,6	14,9
0,728	-23,9	15,8
0,7285	-27,3	16,6
0,729	-28,7	17,1
0,7295	-27,9	17,4
0,73	-25,3	17,8
0,7305	-21,0	18,4
0,731	-15,8	18,8
0,7315	-10,5	18,7
0,732	-5,6	17,8
0,7325	-1,3	16,3
0,733	2,4	14,4
0,7335	5,6	12,5
0,734	8,4	11,0
0,7345	10,8	10,1
0,735	12,4	9,9
0,7355	12,6	10,1
0,736	11,1	10,3
0,7365	8,4	10,7
0,737	4,9	11,3
0,7375	1,0	11,9
0,738	-3,0	12,2
0,7385	-6,8	12,4
0,739	-10,4	12,8
0,7395	-13,7	13,5
0,74	-17,1	14,3
0,7405	-20,9	15,1
0,741	-24,8	15,9
0,7415	-28,5	16,7
0,742	-31,7	17,2
0,7425	-33,8	17,4
0,743	-34,6	17,2
0,7435	-33,9	16,5
0,744	-32,4	15,8
0,7445	-30,8	15,1
0,745	-29,4	14,6
0,7455	-28,3	14,4
0,746	-27,7	14,3
0,7465	-27,9	14,4
0,747	-28,3	14,5
0,7475	-28,0	15,0
0,748	-26,8	15,6
0,7485	-25,3	16,2
0,749	-24,2	16,2
0,7495	-23,5	15,7
0,75	-22,7	14,8
0,7505	-21,6	13,9
0,751	-20,6	13,3
0,7515	-20,2	13,0
0,752	-20,4	13,0
0,7525	-20,9	13,3
0,753	-21,0	13,7
0,7535	-20,3	13,8
0,754	-18,0	13,7
0,7545	-14,3	13,3
0,755	-9,8	12,6
0,7555	-5,2	11,9
0,756	-1,3	11,3
0,7565	2,0	10,8
0,757	4,8	10,7
0,7575	7,3	10,9
0,758	9,7	11,4
0,7585	12,2	12,0
0,759	14,4	12,5
0,7595	16,0	13,3
0,76	16,7	14,0
0,7605	16,3	14,8
0,761	14,8	15,3
0,7615	13,0	15,4
0,762	11,6	15,4
0,7625	10,3	15,4
0,763	8,6	15,5
0,7635	6,1	15,5
0,764	3,0	15,2
0,7645	-0,2	14,5
0,765	-3,2	13,7
0,7655	-6,2	12,9
0,766	-9,3	12,5
0,7665	-12,6	12,3
0,767	-16,3	12,1
0,7675	-20,8	11,9
0,768	-26,3	11,8
0,7685	-32,3	11,8
0,769	-37,6	12,1
0,7695	-41,2	12,3
0,77	-42,3	12,2
0,7705	-41,1	12,1
0,771	-38,2	12,1
0,7715	-34,2	11,9
0,772	-29,7	11,8
0,7725	-24,8	11,8
0,773	-19,2	12,2
0,7735	-13,1	12,9
0,774	-7,2	13,9
0,7745	-2,4	15,2
0,775	0,8	16,5
0,7755	2,5	17,8
0,776	3,0	18,5
0,7765	2,7	18,6
0,777	2,0	18,3
0,7775	1,4	17,9
0,778	0,5	17,3
0,7785	-1,4	15,9
0,779	-4,9	14,0
0,7795	-9,8	12,3
0,78	-15,0	11,3
0,7805	-19,7	11,1
0,781	-23,2	11,7
0,7815	-25,7	12,7
0,782	-27,4	14,0
0,7825	-28,0	15,0
0,783	-27,2	15,5
0,7835	-25,4	15,2
0,784	-23,7	14,4
0,7845	-22,8	13,5
0,785	-22,4	12,8
0,7855	-21,7	12,3
0,786	-19,8	11,9
0,7865	-16,6	11,5
0,787	-12,9	11,2
0,7875	-10,0	10,9
0,788	-8,4	10,6
0,7885	-8,1	10,3
0,789	-8,6	10,0
0,7895	-9,2	9,9
0,79	-9,0	10,2
0,7905	-7,1	10,9
0,791	-2,7	11,8
0,7915	4,2	12,9
0,792	12,3	13,8
0,7925	19,4	14,6
0,793	23,3	15,2
0,7935	23,5	15,7
0,794	20,8	15,9
0,7945	16,6	15,7
0,795	11,2	15,0
0,7955	4,5	14,1
0,796	-3,4	13,5
0,7965	-11,7	13,5
0,797	-18,9	14,1
0,7975	-24,6	14,8
0,798	-28,7	15,4
0,7985	-31,1	15,6
0,799	-31,4	15,4
0,7995	-29,7	15,0
0,8	-26,7	14,6
0,8005	-23,4	14,1
0,801	-20,3	13,6
0,8015	-17,1	12,9
0,802	-14,3	12,2
0,8025	-12,2	11,6
0,803	-11,3	11,3
0,8035	-10,9	11,3
0,804	-10,0	11,2
0,8045	-8,2	11,0
0,805	-6,2	10,6
0,8055	-5,2	10,3
0,806	-5,7	10,3
0,8065	-7,8	10,4
0,807	-11,2	10,7
0,8075	-15,2	11,3
0,808	-19,3	11,9
0,8085	-22,3	12,6
0,809	-23,6	13,2
0,8095	-23,1	13,4
0,81	-21,0	13,5
0,8105	-17,8	13,3
0,811	-13,8	12,8
0,8115	-9,3	12,2
0,812	-4,7	11,3
0,8125	-0,8	10,4
0,813	1,8	9,3
0,8135	3,3	8,2
0,814	4,4	7,0
0,8145	5,2	6,0
0,815	6,0	5,3
0,8155	6,9	5,3
0,816	7,9	5,7
0,8165	8,6	6,6
0,817	8,2	7,8
0,8175	6,4	9,4
0,818	3,3	11,4
0,8185	-0,7	13,6
0,819	-5,1	15,4
0,8195	-9,4	16,5
0,82	-13,1	17,0
0,8205	-15,7	17,0
0,821	-17,0	16,8
0,8215	-17,1	16,3
0,822	-16,8	15,6
0,8225	-16,3	15,0
0,823	-16,3	14,9
0,8235	-16,6	15,4
0,824	-17,4	16,3
0,8245	-18,4	17,4
0,825	-19,3	18,1
0,8255	-19,1	18,3
0,826	-17,6	18,1
0,8265	-15,3	17,4
0,827	-13,2	16,6
0,8275	-11,7	15,6
0,828	-10,5	14,7
0,8285	-8,8	14,0
0,829	-6,3	13,7
0,8295	-2,6	13,8
0,83	1,9	14,2
0,8305	6,7	14,4
0,831	11,4	14,5
0,8315	15,6	14,2
0,832	19,0	13,4
0,8325	21,0	12,3
0,833	21,4	11,3
0,8335	20,0	10,4
0,834	17,2	9,8
0,8345	13,2	9,5
0,835	8,8	9,4
0,8355	4,7	9,6
0,836	0,7	10,3
0,8365	-3,9	11,3
0,837	-8,8	12,6
0,8375	-13,1	13,8
0,838	-16,0	14,8
0,8385	-17,6	15,4
0,839	-18,7	15,6
0,8395	-20,1	15,5
0,84	-21,9	15,5
0,8405	-24,0	15,8
0,841	-26,0	16,5
0,8415	-27,5	17,4
0,842	-28,5	18,2
0,8425	-28,9	18,8
0,843	-28,2	18,9
0,8435	-26,0	18,4
0,844	-22,4	17,5
0,8445	-18,0	16,3
0,845	-13,1	15,1
0,8455	-7,8	13,9
0,846	-2,3	13,1
0,8465	2,7	12,8
0,847	6,9	12,7
0,8475	10,2	12,8
0,848	12,5	12,7
0,8485	13,9	12,2
0,849	14,5	11,4
0,8495	14,7	10,3
0,85	14,8	9,2
0,8505	14,6	8,3
0,851	13,8	7,6
0,8515	12,2	7,4
0,852	9,5	7,6
0,8525	6,0	8,1
0,853	1,6	8,8
0,8535	-3,3	9,9
0,854	-8,1	11,0
0,8545	-12,4	11,9
0,855	-15,9	12,1
0,8555	-18,5	11,7
0,856	-19,6	11,0
0,8565	-19,2	10,3
0,857	-17,6	10,3
0,8575	-15,5	10,8
0,858	-13,4	11,8
0,8585	-11,4	12,8
0,859	-9,2	13,3
0,8595	-6,8	13,1
0,86	-4,8	12,4
0,8605	-3,7	11,6
0,861	-3,7	11,0
0,8615	-4,8	10,6
0,862	-6,6	10,5
0,8625	-8,8	10,8
0,863	-11,4	11,6
0,8635	-14,3	12,5
0,864	-16,9	13,3
0,8645	-18,8	13,9
0,865	-19,6	14,4
0,8655	-19,6	14,7
0,866	-19,3	14,6
0,8665	-18,8	13,8
0,867	-18,3	12,7
0,8675	-17,4	11,7
0,868	-16,2	11,1
0,8685	-14,6	10,9
0,869	-12,7	10,8
0,8695	-10,7	11,0
0,87	-9,0	11,0
0,8705	-7,9	10,9
0,871	-7,7	10,5
0,8715	-8,5	10,0
0,872	-10,7	9,8
0,8725	-13,8	10,0
0,873	-17,0	10,6
0,8735	-19,6	11,5
0,874	-20,9	12,4
0,8745	-21,0	13,1
0,875	-19,8	13,5
0,8755	-16,6	13,3
0,876	-11,4	12,6
0,8765	-4,9	11,5
0,877	1,4	10,1
0,8775	6,1	8,7
0,878	8,1	7,5
0,8785	7,7	6,7
0,879	5,5	6,7
0,8795	2,5	7,5
0,88	-1,1	8,8
0,8805	-4,7	10,2
0,881	-8,0	11,3
0,8815	-10,7	11,8
0,882	-12,8	11,6
0,8825	-14,6	11,0
0,883	-16,4	10,2
0,8835	-18,9	9,2
0,884	-22,1	8,3
0,8845	-25,3	8,0
0,885	-27,7	8,3
0,8855	-28,7	9,2
0,886	-28,2	10,3
0,8865	-26,2	11,3
0,887	-23,0	11,9
0,8875	-19,0	12,1
0,888	-14,9	12,0
0,8885	-10,8	11,7
0,889	-6,6	11,3
0,8895	-1,8	10,9
0,89	3,2	10,5
0,8905	7,2	10,2
0,891	9,7	10,1
0,8915	11,2	10,2
0,892	13,1	10,3
0,8925	16,9	10,5
0,893	22,6	10,8
0,8935	29,1	11,2
0,894	34,7	11,8
0,8945	38,3	12,5
0,895	39,5	13,0
0,8955	38,3	13,3
0,896	34,7	13,2
0,8965	29,1	12,6
0,897	22,2	12,1
0,8975	14,7	11,8
0,898	7,6	12,0
0,8985	1,3	12,5
0,899	-3,4	12,7
0,8995	-6,1	12,4
0,9	-7,0	11,8
0,9005	-6,8	11,1
0,901	-6,3	10,7
0,9015	-6,3	10,7
0,902	-7,1	10,8
0,9025	-8,9	10,5
0,903	-12,2	9,8
0,9035	-16,7	9,1
0,904	-21,5	8,5
0,9045	-25,3	8,2
0,905	-27,2	8,0
0,9055	-27,6	7,9
0,906	-27,5	8,2
0,9065	-27,0	8,9
0,907	-25,7	10,1
0,9075	-23,4	11,7
0,908	-21,2	13,5
0,9085	-19,8	15,2
0,909	-19,4	16,5
0,9095	-19,3	17,2
0,91	-19,1	17,0
0,9105	-18,8	16,1
0,911	-18,2	14,7
0,9115	-16,8	13,3
0,912	-14,5	12,0
0,9125	-12,2	11,0
0,913	-10,6	10,3
0,9135	-9,9	10,0
0,914	-9,8	10,2
0,9145	-9,6	10,6
0,915	-8,8	11,0
0,9155	-6,8	11,2
0,916	-3,5	10,9
0,9165	0,4	10,4
0,917	3,8	9,7
0,9175	5,9	9,2
0,918	6,3	8,9
0,9185	5,2	9,1
0,919	3,3	9,6
0,9195	0,8	10,1
0,92	-1,9	10,2
0,9205	-4,8	10,1
0,921	-7,3	9,7
0,9215	-9,3	9,2
0,922	-10,3	8,8
0,9225	-10,4	8,5
0,923	-9,7	8,6
0,9235	-8,3	8,8
0,924	-6,2	9,3
0,9245	-3,6	10,0
0,925	-0,8	10,6
0,9255	1,6	10,8
0,926	3,6	10,6
0,9265	5,3	10,1
0,927	7,1	9,4
0,9275	9,1	8,9
0,928	11,5	8,8
0,9285	13,9	8,9
0,929	15,5	9,1
0,9295	15,8	9,4
0,93	14,7	10,0
0,9305	13,0	11,1
0,931	10,8	12,5
0,9315	7,8	13,8
0,932	3,7	14,9
0,9325	-1,4	15,3
0,933	-6,8	14,9
0,9335	-12,3	14,0
0,934	-17,7	12,8
0,9345	-23,1	11,8
0,935	-27,8	11,3
0,9355	-31,1	11,5
0,936	-33,0	12,2
0,9365	-34,1	13,3
0,937	-34,7	14,4
0,9375	-34,3	14,8
0,938	-32,4	14,4
0,9385	-29,7	13,6
0,939	-27,3	12,7
0,9395	-26,2	12,0
0,94	-26,5	11,6
0,9405	-28,0	11,5
0,941	-29,6	11,8
0,9415	-30,8	12,4
0,942	-31,7	13,0
0,9425	-32,1	13,4
0,943	-31,8	13,7
0,9435	-30,4	13,6
0,944	-27,4	13,3
0,9445	-22,7	12,8
0,945	-16,0	12,2
0,9455	-7,6	11,6
0,946	2,3	11,4
0,9465	12,7	11,6
0,947	22,3	12,0
0,9475	30,1	12,2
0,948	35,9	12,2
0,9485	39,9	11,9
0,949	42,1	11,5
0,9495	42,8	10,9
0,95	42,4	10,4
0,9505	41,0	9,9
0,951	38,5	9,7
0,9515	34,7	9,9
0,952	29,5	10,8
0,9525	22,9	12,3
0,953	15,3	13,7
0,9535	6,8	14,8
0,954	-2,3	15,1
0,9545	-11,8	14,5
0,955	-20,9	13,2
0,9555	-29,1	11,6
0,956	-35,4	10,1
0,9565	-39,3	8,8
0,957	-41,0	8,2
0,9575	-40,9	8,3
0,958	-39,8	9,0
0,9585	-38,3	9,8
0,959	-36,4	10,6
0,9595	-33,0	11,4
0,96	-27,3	12,1
0,9605	-19,4	12,5
0,961	-10,4	12,7
0,9615	-1,8	12,4
0,962	5,8	11,8
0,9625	11,8	11,2
0,963	15,9	10,9
0,9635	18,2	11,2
0,964	18,4	11,6
0,9645	16,6	12,0
0,965	13,2	12,2
0,9655	9,1	12,1
0,966	5,1	11,5
0,9665	1,6	10,8
0,967	-1,8	10,1
0,9675	-5,4	9,8
0,968	-9,4	10,2
0,9685	-13,5	11,1
0,969	-17,3	12,2
0,9695	-20,8	13,3
0,97	-23,7	14,2
0,9705	-25,5	14,8
0,971	-26,0	15,2
0,9715	-25,5	15,2
0,972	-25,3	14,8
0,9725	-25,9	14,3
0,973	-27,1	13,9
0,9735	-27,8	13,6
0,974	-27,6	13,7
0,9745	-27,1	14,2
0,975	-26,5	14,9
0,9755	-26,0	15,6
0,976	-25,5	15,8
0,9765	-25,0	15,7
0,977	-24,3	15,1
0,9775	-22,8	14,3
0,978	-20,0	13,1
0,9785	-16,2	11,8
0,979	-11,8	10,7
0,9795	-7,5	10,1
0,98	-3,3	10,1
0,9805	0,8	10,5
0,981	5,3	11,2
0,9815	10,9	11,9
0,982	17,6	12,5
0,9825	24,5	13,1
0,983	30,3	13,5
0,9835	34,0	13,5
0,984	34,7	13,2
0,9845	32,2	12,6
0,985	27,3	11,9
0,9855	21,6	11,4
0,986	16,5	11,4
0,9865	12,8	11,9
0,987	10,2	12,7
0,9875	8,6	13,5
0,988	7,8	13,9
0,9885	7,9	14,0
0,989	8,5	13,9
0,9895	9,2	13,5
0,99	9,3	13,1
0,9905	8,5	12,9
0,991	6,8	13,0
0,9915	4,5	13,7
0,992	2,3	14,6
0,9925	0,7	15,5
0,993	0,5	16,3
0,9935	1,8	16,8
0,994	4,3	16,8
0,9945	6,9	16,7
0,995	9,2	16,3
0,9955	10,5	15,8
0,996	10,4	15,2
0,9965	9,3	14,3
0,997	7,8	13,4
0,9975	6,5	12,4
0,998	5,9	11,6
0,9985	5,3	11,1
0,999	4,2	10,9
0,9995	2,3	11,1
1	0,5	11,7
1,0005	-0,4	12,6
1,001	-0,3	13,9
1,0015	0,0	15,4
1,002	-0,2	16,8
1,0025	-0,8	17,8
1,003	-1,2	18,2
1,0035	-0,6	18,2
1,004	1,1	17,6
1,0045	3,8	16,8
1,005	7,0	15,8
1,0055	9,7	15,1
1,006	10,8	14,8
1,0065	10,1	14,7
1,007	7,4	14,8
1,0075	3,6	15,0
1,008	-0,4	15,2
1,0085	-3,9	15,6
1,009	-6,6	16,1
1,0095	-8,8	16,7
1,01	-10,9	17,1
1,0105	-13,2	17,2
1,011	-15,5	17,2
1,0115	-16,8	17,4
1,012	-15,9	17,6
1,0125	-12,3	17,7
1,013	-6,7	17,6
1,0135	-0,3	17,4
1,014	5,2	17,2
1,0145	8,3	16,8
1,015	8,8	16,5
1,0155	6,7	16,3
1,016	2,3	16,3
1,0165	-4,0	16,3
1,017	-11,6	16,3
1,0175	-19,7	16,3
1,018	-26,5	16,3
1,0185	-30,8	16,5
1,019	-32,3	17,1
1,0195	-31,8	17,7
1,02	-30,0	18,2
1,0205	-27,5	18,3
1,021	-24,5	18,2
1,0215	-21,6	17,8
1,022	-19,8	17,4
1,0225	-19,2	17,1
1,023	-19,5	16,8
1,0235	-19,8	16,4
1,024	-18,8	16,0
1,0245	-15,7	15,8
1,025	-10,0	15,9
1,0255	-2,8	16,4
1,026	4,0	17,0
1,0265	8,7	17,7
1,027	10,3	18,3
1,0275	8,7	19,0
1,028	4,7	19,4
1,0285	-0,8	19,8
1,029	-7,0	20,0
1,0295	-13,7	20,3
1,03	-20,7	20,8
1,0305	-27,1	21,4
1,031	-32,3	22,2
1,0315	-35,8	22,9
1,032	-37,7	23,3
1,0325	-38,1	23,4
1,033	-36,6	23,3
1,0335	-32,7	23,2
1,034	-26,3	23,4
1,0345	-18,6	23,8
1,035	-10,8	24,2
1,0355	-3,8	24,0
1,036	1,8	23,3
1,0365	6,2	22,5
1,037	9,6	21,8
1,0375	12,5	21,2
1,038	15,1	20,5
1,0385	17,4	19,6
1,039	19,0	18,6
1,0395	19,7	17,7
1,04	19,4	16,9
1,0405	18,0	16,4
1,041	15,7	16,3
1,0415	12,8	16,8
1,042	9,8	17,8
1,0425	6,6	19,3
1,043	3,4	21,1
1,0435	0,5	22,6
1,044	-1,6	23,7
1,0445	-2,5	24,1
1,045	-2,8	24,1
1,0455	-3,2	23,8
1,046	-4,3	23,7
1,0465	-6,5	23,8
1,047	-9,2	23,9
1,0475	-11,3	24,0
1,048	-12,3	23,7
1,0485	-11,9	22,8
1,049	-10,2	21,5
1,0495	-7,5	20,0
1,05	-4,4	18,6
1,0505	-1,7	17,4
1,051	0,4	16,7
1,0515	1,8	16,3
1,052	3,3	16,4
1,0525	5,3	17,0
1,053	7,4	17,9
1,0535	9,0	19,0
1,054	10,0	19,9
1,0545	10,9	20,3
1,055	12,0	20,3
1,0555	13,2	20,1
1,056	14,5	20,0
1,0565	15,8	20,4
1,057	16,3	21,8
1,0575	15,5	23,8
1,058	12,7	25,8
1,0585	8,2	27,2
1,059	2,8	27,9
1,0595	-1,4	28,4
1,06	-3,2	28,6
1,0605	-2,4	28,3
1,061	-0,3	27,6
1,0615	1,7	26,8
1,062	3,0	26,0
1,0625	3,5	25,5
1,063	2,7	25,1
1,0635	0,6	24,7
1,064	-2,3	24,1
1,0645	-5,0	23,1
1,065	-6,9	21,6
1,0655	-7,8	19,7
1,066	-8,1	17,9
1,0665	-8,8	16,5
1,067	-10,5	16,0
1,0675	-12,9	16,1
1,068	-15,0	16,3
1,0685	-16,0	16,5
1,069	-15,7	16,6
1,0695	-15,0	16,4
1,07	-14,7	16,3
1,0705	-14,7	16,2
1,071	-14,7	16,2
1,0715	-14,1	16,2
1,072	-13,0	16,3
1,0725	-11,4	16,5
1,073	-9,7	17,0
1,0735	-8,3	17,6
1,074	-7,8	18,3
1,0745	-7,4	19,1
1,075	-6,2	20,1
1,0755	-3,5	21,1
1,076	0,1	21,9
1,0765	3,4	22,4
1,077	5,2	22,5
1,0775	5,1	22,3
1,078	3,6	21,7
1,0785	1,4	20,8
1,079	-0,5	20,2
1,0795	-1,5	20,0
1,08	-1,2	20,1
1,0805	0,5	20,2
1,081	3,1	20,1
1,0815	5,4	19,7
1,082	6,1	19,0
1,0825	4,4	18,5
1,083	0,1	18,2
1,0835	-5,9	18,2
1,084	-12,6	18,3
1,0845	-18,7	18,5
1,085	-23,2	18,8
1,0855	-25,5	19,0
1,086	-25,4	19,4
1,0865	-23,5	19,8
1,087	-20,7	20,3
1,0875	-17,8	20,8
1,088	-15,3	20,9
1,0885	-13,3	20,6
1,089	-11,0	20,0
1,0895	-8,2	19,2
1,09	-5,1	18,5
1,0905	-2,7	18,1
1,091	-1,5	18,0
1,0915	-1,4	18,0
1,092	-1,8	18,3
1,0925	-2,6	18,9
1,093	-4,0	19,8
1,0935	-5,8	20,8
1,094	-6,8	21,5
1,0945	-6,3	21,4
1,095	-4,2	20,8
1,0955	-1,3	19,9
1,096	1,3	18,9
1,0965	2,5	18,2
1,097	2,3	17,9
1,0975	0,8	18,1
1,098	-0,8	18,8
1,0985	-1,8	19,7
1,099	-1,8	20,3
1,0995	-0,1	20,5
1,1	3,3	20,4
1,1005	8,8	20,3
1,101	17,1	20,3
1,1015	27,7	20,5
1,102	39,1	20,7
1,1025	49,1	20,9
1,103	55,9	21,2
1,1035	59,5	21,4
1,104	60,3	21,2
1,1045	59,1	20,5
1,105	56,0	19,5
1,1055	50,9	18,8
1,106	43,7	18,6
1,1065	35,1	19,2
1,107	25,7	20,7
1,1075	15,8	22,7
1,108	5,6	24,8
1,1085	-4,7	26,7
1,109	-14,4	27,8
1,1095	-23,2	28,0
1,11	-30,8	27,3
1,1105	-36,8	26,2
1,111	-40,5	25,3
1,1115	-40,9	24,5
1,112	-37,9	24,0
1,1125	-33,0	23,8
1,113	-28,8	23,8
1,1135	-26,8	23,9
1,114	-27,1	23,8
1,1145	-28,0	23,4
1,115	-28,9	22,6
1,1155	-29,5	21,5
1,116	-30,1	20,1
1,1165	-30,6	18,5
1,117	-30,6	17,0
1,1175	-30,0	16,0
1,118	-28,8	15,7
1,1185	-27,1	16,0
1,119	-25,1	16,7
1,1195	-22,8	17,5
1,12	-20,0	18,3
1,1205	-17,1	18,8
1,121	-14,4	19,0
1,1215	-12,1	18,9
1,122	-10,0	18,5
1,1225	-7,9	18,2
1,123	-5,8	18,0
1,1235	-3,9	18,0
1,124	-2,6	18,3
1,1245	-1,9	18,8
1,125	-2,0	19,4
1,1255	-2,9	20,3
1,126	-4,5	21,2
1,1265	-6,4	21,9
1,127	-8,5	22,3
1,1275	-10,8	22,5
1,128	-13,4	22,3
1,1285	-16,7	21,9
1,129	-20,9	21,5
1,1295	-25,7	21,2
1,13	-30,2	20,8
1,1305	-33,7	20,4
1,131	-35,6	20,5
1,1315	-35,7	21,1
1,132	-34,3	21,8
1,1325	-32,0	21,9
1,133	-29,3	21,2
1,1335	-26,4	19,8
1,134	-23,7	18,2
1,1345	-21,6	16,7
1,135	-20,7	15,6
1,1355	-20,4	15,2
1,136	-19,9	15,4
1,1365	-18,2	16,1
1,137	-15,4	16,8
1,1375	-11,8	17,3
1,138	-7,1	17,4
1,1385	-0,8	17,2
1,139	6,9	17,0
1,1395	14,9	17,0
1,14	21,7	17,1
1,1405	26,2	17,4
1,141	28,3	17,9
1,1415	28,1	18,7
1,142	26,3	19,6
1,1425	23,6	20,3
1,143	20,2	20,8
1,1435	15,7	21,2
1,144	9,7	21,2
1,1445	2,9	20,8
1,145	-3,1	20,2
1,1455	-7,1	19,8
1,146	-9,2	20,0
1,1465	-10,0	20,6
1,147	-10,2	21,1
1,1475	-9,9	21,5
1,148	-9,5	21,5
1,1485	-9,1	21,3
1,149	-8,7	20,9
1,1495	-8,2	20,5
1,15	-7,6	20,1
1,1505	-6,7	19,4
1,151	-5,6	18,4
1,1515	-4,3	17,3
1,152	-3,3	16,4
1,1525	-3,1	15,9
1,153	-3,9	15,8
1,1535	-6,0	16,2
1,154	-8,7	17,3
1,1545	-10,8	18,6
1,155	-11,9	19,8
1,1555	-11,9	20,5
1,156	-11,4	20,5
1,1565	-10,6	20,1
1,157	-9,9	19,4
1,1575	-9,7	18,7
1,158	-10,5	18,1
1,1585	-12,3	17,8
1,159	-14,3	17,8
1,1595	-16,0	18,0
1,16	-16,8	18,3
1,1605	-16,3	18,6
1,161	-14,7	18,9
1,1615	-12,2	19,2
1,162	-9,0	19,4
1,1625	-5,0	19,8
1,163	-0,5	20,3
1,1635	4,3	21,1
1,164	9,2	21,8
1,1645	14,3	22,2
1,165	20,0	22,3
1,1655	26,0	22,0
1,166	31,2	21,3
1,1665	34,1	20,6
1,167	34,2	20,0
1,1675	31,8	19,4
1,168	27,2	19,0
1,1685	20,6	18,7
1,169	11,8	18,2
1,1695	1,6	17,7
1,17	-8,3	17,1
1,1705	-16,0	16,9
1,171	-20,9	16,9
1,1715	-22,9	17,3
1,172	-23,0	18,2
1,1725	-22,0	19,2
1,173	-21,1	20,1
1,1735	-20,8	20,5
1,174	-20,8	20,5
1,1745	-20,3	20,4
1,175	-18,7	20,4
1,1755	-15,8	20,7
1,176	-11,9	20,9
1,1765	-7,2	20,8
1,177	-2,2	20,5
1,1775	2,5	20,1
1,178	6,5	19,5
1,1785	9,8	18,9
1,179	12,3	18,4
1,1795	14,0	18,3
1,18	14,6	18,6
1,1805	14,6	19,0
1,181	14,5	19,2
1,1815	14,8	19,2
1,182	15,4	18,9
1,1825	15,6	18,4
1,183	15,0	17,7
1,1835	13,4	16,8
1,184	10,6	16,2
1,1845	6,5	16,2
1,185	1,7	16,5
1,1855	-3,2	16,9
1,186	-7,4	17,3
1,1865	-11,1	17,8
1,187	-14,6	18,1
1,1875	-18,4	18,4
1,188	-22,5	18,7
1,1885	-26,8	18,9
1,189	-31,2	19,1
1,1895	-35,8	19,3
1,19	-39,7	19,5
1,1905	-41,4	19,8
1,191	-40,2	20,0
1,1915	-36,2	20,1
1,192	-30,8	20,1
1,1925	-25,2	20,1
1,193	-20,6	20,1
1,1935	-17,6	20,0
1,194	-16,2	19,9
1,1945	-16,3	19,6
1,195	-17,5	19,0
1,1955	-19,1	18,2
1,196	-20,1	17,5
1,1965	-20,2	17,0
1,197	-19,4	16,7
1,1975	-17,9	16,5
1,198	-16,0	16,3
1,1985	-13,7	16,0
1,199	-11,3	15,7
1,1995	-9,0	15,4
1,2	-7,3	15,3
1,2005	-6,1	15,5
1,201	-5,5	15,9
1,2015	-5,4	16,5
1,202	-5,6	17,3
1,2025	-5,9	18,2
1,203	-6,1	19,1
1,2035	-5,4	19,9
1,204	-3,8	20,6
1,2045	-2,2	20,8
1,205	-1,8	20,5
1,2055	-3,9	20,0
1,206	-8,3	19,6
1,2065	-13,9	19,2
1,207	-19,0	18,8
1,2075	-22,4	18,3
1,208	-23,5	17,9
1,2085	-22,7	17,7
1,209	-20,3	17,9
1,2095	-17,0	18,3
1,21	-13,6	18,4
1,2105	-10,5	18,1
1,211	-8,1	17,4
1,2115	-5,8	16,6
1,212	-3,4	15,9
1,2125	-0,8	15,5
1,213	1,7	15,4
1,2135	3,9	15,3
1,214	5,7	15,2
1,2145	7,3	15,1
1,215	9,3	15,1
1,2155	12,7	15,0
1,216	17,9	14,7
1,2165	24,3	14,1
1,217	30,6	13,2
1,2175	35,7	12,3
1,218	39,3	11,5
1,2185	41,3	11,0
1,219	41,4	11,0
1,2195	39,5	11,6
1,22	35,8	12,5
1,2205	31,1	13,5
1,221	25,8	14,4
1,2215	19,6	14,7
1,222	11,9	14,6
1,2225	2,3	14,3
1,223	-8,3	14,2
1,2235	-19,2	14,6
1,224	-29,1	15,5
1,2245	-37,7	16,7
1,225	-44,9	17,9
1,2255	-50,8	18,7
1,226	-54,8	19,1
1,2265	-56,4	19,0
1,227	-55,3	18,8
1,2275	-51,8	18,6
1,228	-46,6	18,5
1,2285	-40,7	18,4
1,229	-35,0	18,2
1,2295	-30,3	17,9
1,23	-26,8	17,7
1,2305	-24,1	17,7
1,231	-21,7	17,8
1,2315	-19,6	17,8
1,232	-17,7	17,4
1,2325	-16,1	16,6
1,233	-14,7	15,8
1,2335	-13,6	15,1
1,234	-13,2	14,4
1,2345	-13,3	13,7
1,235	-13,8	13,2
1,2355	-13,9	12,9
1,236	-13,5	12,8
1,2365	-12,5	12,7
1,237	-11,4	12,6
1,2375	-10,6	12,3
1,238	-10,1	11,9
1,2385	-9,9	11,4
1,239	-9,7	11,1
1,2395	-9,0	10,8
1,24	-7,6	10,4
1,2405	-5,6	9,8
1,241	-3,4	9,0
1,2415	-1,3	8,1
1,242	0,7	7,3
1,2425	2,7	6,8
1,243	4,3	6,7
1,2435	4,9	7,2
1,244	4,1	8,3
1,2445	1,8	9,6
1,245	-1,7	10,7
1,2455	-5,9	11,3
1,246	-10,5	11,5
1,2465	-15,1	11,0
1,247	-19,6	10,3
1,2475	-23,7	9,7
1,248	-27,2	9,5
1,2485	-29,9	9,6
1,249	-31,8	9,9
1,2495	-32,5	10,0
1,25	-32,3	9,7
1,2505	-31,3	8,9
1,251	-30,0	7,9
1,2515	-27,8	7,3
1,252	-23,6	7,2
1,2525	-17,0	7,4
1,253	-9,6	7,8
1,2535	-3,5	8,3
1,254	-0,1	8,6
1,2545	0,6	8,7
1,255	-0,6	8,6
1,2555	-3,1	8,5
1,256	-6,1	8,5
1,2565	-9,3	8,7
1,257	-12,7	9,2
1,2575	-16,2	9,9
1,258	-19,8	10,8
1,2585	-23,2	11,6
1,259	-26,1	12,0
1,2595	-28,3	12,0
1,26	-29,9	11,7
1,2605	-30,7	11,5
1,261	-30,2	11,6
1,2615	-28,3	11,9
1,262	-25,5	12,1
1,2625	-22,2	12,3
1,263	-18,8	12,6
1,2635	-15,1	12,8
1,264	-11,5	12,8
1,2645	-8,5	12,5
1,265	-6,4	12,0
1,2655	-5,1	11,2
1,266	-4,5	10,3
1,2665	-4,8	9,4
1,267	-5,8	8,5
1,2675	-7,4	7,8
1,268	-9,2	7,1
1,2685	-10,6	6,9
1,269	-11,3	7,2
1,2695	-11,5	7,9
1,27	-11,5	9,1
1,2705	-11,5	10,2
1,271	-11,3	11,1
1,2715	-10,6	11,4
1,272	-9,7	11,5
1,2725	-8,9	11,5
1,273	-9,0	11,5
1,2735	-9,8	11,7
1,274	-11,2	12,1
1,2745	-12,2	12,4
1,275	-12,5	12,3
1,2755	-12,0	12,0
1,276	-10,9	11,6
1,2765	-9,5	11,1
1,277	-7,8	10,8
1,2775	-5,9	10,5
1,278	-4,0	10,1
1,2785	-2,3	9,5
1,279	-1,0	9,1
1,2795	-0,0	9,2
1,28	0,6	9,8
1,2805	1,0	10,2
1,281	0,7	10,1
1,2815	-0,8	9,5
1,282	-3,5	8,9
1,2825	-6,9	8,8
1,283	-10,0	9,2
1,2835	-12,2	10,1
1,284	-13,7	11,0
1,2845	-14,8	11,6
1,285	-16,0	11,4
1,2855	-17,3	10,6
1,286	-18,8	9,7
1,2865	-20,2	9,1
1,287	-21,3	8,9
1,2875	-21,9	9,0
1,288	-21,7	9,0
1,2885	-20,5	8,8
1,289	-18,4	8,7
1,2895	-15,2	8,5
1,29	-10,8	8,4
1,2905	-5,4	8,6
1,291	0,6	8,9
1,2915	6,6	9,4
1,292	11,7	9,8
1,2925	15,4	10,1
1,293	18,4	9,9
1,2935	21,6	9,3
1,294	25,1	8,4
1,2945	28,4	7,3
1,295	31,0	5,9
1,2955	32,6	4,5
1,296	33,0	3,7
1,2965	32,3	3,7
1,297	30,6	4,3
1,2975	28,0	5,4
1,298	24,1	6,1
1,2985	18,7	6,2
1,299	12,6	5,4
1,2995	6,4	4,5
1,3	0,4	3,9
1,3005	-5,7	3,9
1,301	-12,9	4,4
1,3015	-21,9	5,0
1,302	-32,0	5,6
1,3025	-42,0	5,9
1,303	-50,4	6,1
1,3035	-56,5	6,2
1,304	-59,4	6,5
1,3045	-59,0	7,0
1,305	-56,0	7,6
1,3055	-51,5	8,1
1,306	-46,2	8,3
1,3065	-40,0	8,3
1,307	-32,8	8,3
1,3075	-24,8	8,2
1,308	-16,6	8,1
1,3085	-9,1	7,9
1,309	-3,3	7,5
1,3095	0,0	7,0
1,31	1,4	6,4
1,3105	1,7	5,9
1,311	1,6	5,5
1,3115	1,3	4,9
1,312	0,9	4,2
1,3125	0,2	3,7
1,313	-1,4	3,8
1,3135	-3,6	4,6
1,314	-6,3	5,6
1,3145	-8,9	6,6
1,315	-11,1	7,3
1,3155	-12,4	7,5
1,316	-13,2	7,2
1,3165	-13,5	6,4
1,317	-12,9	5,5
1,3175	-10,8	4,8
1,318	-7,7	4,4
1,3185	-4,7	4,2
1,319	-3,1	4,2
1,3195	-3,2	4,3
1,32	-4,1	4,8
1,3205	-5,0	5,3
1,321	-5,3	5,6
1,3215	-4,8	5,5
1,322	-4,0	5,2
1,3225	-3,6	4,8
1,323	-4,3	4,8
1,3235	-6,0	5,2
1,324	-8,8	6,1
1,3245	-12,4	7,1
1,325	-16,9	8,0
1,3255	-22,6	8,3
1,326	-29,2	7,9
1,3265	-36,2	7,1
1,327	-42,6	6,5
1,3275	-48,0	6,7
1,328	-52,2	7,8
1,3285	-54,9	9,3
1,329	-56,1	10,6
1,3295	-55,9	11,2
1,33	-54,6	10,9
1,3305	-52,4	10,0
1,331	-49,8	8,7
1,3315	-46,8	7,7
1,332	-43,4	6,9
1,3325	-39,7	6,4
1,333	-35,6	6,0
1,3335	-31,5	5,4
1,334	-27,9	4,6
1,3345	-24,9	3,8
1,335	-22,5	3,3
1,3355	-20,5	3,1
1,336	-18,8	3,1
1,3365	-17,1	3,3
1,337	-15,3	3,4
1,3375	-13,6	3,3
1,338	-11,8	3,0
1,3385	-10,1	2,8
1,339	-8,5	2,9
1,3395	-6,8	3,3
1,34	-5,1	3,8
1,3405	-3,7	4,2
1,341	-3,3	4,2
1,3415	-4,2	3,9
1,342	-5,9	3,6
1,3425	-8,0	3,4
1,343	-9,9	3,4
1,3435	-10,7	3,5
1,344	-9,3	3,6
1,3445	-5,6	3,5
1,345	-0,2	3,3
1,3455	5,6	3,0
1,346	10,1	2,8
1,3465	12,6	2,8
1,347	12,8	2,9
1,3475	10,9	3,2
1,348	6,9	3,5
1,3485	1,0	3,6
1,349	-6,4	3,3
1,3495	-14,6	2,9
1,35	-22,8	2,9
1,3505	-30,3	3,3
1,351	-35,9	3,7
1,3515	-39,2	4,0
1,352	-40,3	4,2
1,3525	-39,8	4,6
1,353	-38,6	5,1
1,3535	-37,3	5,3
1,354	-36,3	5,1
1,3545	-35,6	4,7
1,355	-34,6	4,4
1,3555	-33,1	4,2
1,356	-31,0	4,0
1,3565	-28,1	3,7
1,357	-24,4	3,3
1,3575	-20,0	2,8
1,358	-15,1	2,6
1,3585	-10,2	2,7
1,359	-6,1	3,2
1,3595	-2,9	3,8
1,36	-1,3	4,4
1,3605	-1,7	4,7
1,361	-4,8	4,4
1,3615	-10,3	3,8
1,362	-17,0	3,1
1,3625	-23,8	3,0
1,363	-28,9	3,6
1,3635	-31,3	4,6
1,364	-31,1	5,6
1,3645	-29,2	6,1
1,365	-27,0	6,0
1,3655	-25,0	5,2
1,366	-23,2	4,2
1,3665	-21,6	3,4
1,367	-20,3	2,8
1,3675	-19,1	2,5
1,368	-17,1	2,4
1,3685	-14,1	2,3
1,369	-10,0	2,4
1,3695	-5,6	2,4
1,37	-1,3	2,4
1,3705	2,8	2,2
1,371	6,4	1,7
1,3715	9,5	0,9
1,372	11,5	-0,1
1,3725	12,7	-0,8
1,373	12,5	-1,3
1,3735	10,9	-1,3
1,374	8,0	-0,9
1,3745	4,5	-0,1
1,375	0,6	1,0
1,3755	-4,1	2,2
1,376	-10,0	3,1
1,3765	-16,3	3,7
1,377	-21,8	4,0
1,3775	-25,4	4,0
1,378	-26,6	3,9
1,3785	-26,1	3,6
1,379	-24,3	3,2
1,3795	-21,8	2,6
1,38	-19,2	1,9
1,3805	-17,3	1,6
1,381	-16,5	1,5
1,3815	-16,3	1,7
1,382	-16,2	1,7
1,3825	-16,4	1,3
1,383	-17,3	0,6
1,3835	-19,1	-0,2
1,384	-21,0	-0,8
1,3845	-22,8	-1,3
1,385	-24,3	-1,5
1,3855	-25,5	-1,4
1,386	-26,4	-0,8
1,3865	-26,8	0,2
1,387	-26,9	1,3
1,3875	-26,6	2,2
1,388	-25,9	2,4
1,3885	-25,0	2,0
1,389	-24,0	1,2
1,3895	-23,1	0,5
1,39	-22,5	0,3
1,3905	-22,3	0,9
1,391	-22,3	1,9
1,3915	-22,1	2,7
1,392	-21,7	3,2
1,3925	-21,1	3,4
1,393	-20,4	3,4
1,3935	-19,5	3,2
1,394	-18,2	2,8
1,3945	-16,1	2,3
1,395	-13,4	1,8
1,3955	-11,1	1,4
1,396	-10,3	1,2
1,3965	-11,0	1,2
1,397	-12,2	1,2
1,3975	-13,1	1,2
1,398	-13,7	1,3
1,3985	-14,6	1,3
1,399	-16,3	0,9
1,3995	-19,0	0,3
1,4	-22,4	-0,2
1,4005	-26,0	-0,3
1,401	-29,5	-0,3
1,4015	-32,3	-0,2
1,402	-33,9	-0,3
1,4025	-34,3	-0,4
1,403	-33,9	-0,4
1,4035	-33,4	0,1
1,404	-33,1	1,0
1,4045	-32,8	1,8
1,405	-32,2	2,3
1,4055	-31,1	2,6
1,406	-29,5	2,9
1,4065	-27,8	3,2
1,407	-26,3	3,6
1,4075	-25,1	4,0
1,408	-24,3	4,5
1,4085	-23,6	4,9
1,409	-22,8	5,0
1,4095	-21,8	4,8
1,41	-20,8	4,5
1,4105	-20,0	4,4
1,411	-20,0	4,1
1,4115	-20,4	3,3
1,412	-21,1	2,2
1,4125	-21,9	1,1
1,413	-22,8	0,5
1,4135	-23,5	0,5
1,414	-23,8	0,8
1,4145	-23,5	1,0
1,415	-23,0	1,0
1,4155	-22,2	0,7
1,416	-21,2	0,2
1,4165	-20,2	-0,4
1,417	-19,2	-1,0
1,4175	-18,4	-1,5
1,418	-17,8	-1,6
1,4185	-17,6	-1,5
1,419	-17,7	-1,2
1,4195	-17,9	-0,8
1,42	-18,3	0,1
1,4205	-18,7	1,2
1,421	-19,5	2,5
1,4215	-20,9	3,3
1,422	-22,8	3,3
1,4225	-24,6	2,4
1,423	-25,4	0,9
1,4235	-24,8	-0,9
1,424	-23,3	-2,5
1,4245	-21,8	-3,4
1,425	-20,8	-3,5
1,4255	-20,8	-3,2
1,426	-21,9	-2,8
1,4265	-23,7	-2,8
1,427	-25,8	-3,0
1,4275	-27,5	-3,4
1,428	-28,6	-3,7
1,4285	-28,8	-4,0
1,429	-28,3	-4,1
1,4295	-27,5	-3,9
1,43	-26,7	-3,5
1,4305	-25,7	-2,9
1,431	-24,5	-2,3
1,4315	-23,3	-1,5
1,432	-22,4	-0,8
1,4325	-21,8	-0,3
1,433	-20,6	-0,4
1,4335	-18,7	-1,1
1,434	-15,9	-1,9
1,4345	-13,0	-2,7
1,435	-10,5	-3,2
1,4355	-8,9	-3,3
1,436	-8,4	-3,0
1,4365	-8,5	-2,0
1,437	-9,1	-0,5
1,4375	-9,9	0,9
1,438	-10,9	1,7
1,4385	-12,0	1,4
1,439	-13,4	0,3
1,4395	-15,1	-1,4
1,44	-16,7	-3,0
1,4405	-17,6	-4,1
1,441	-17,2	-4,3
1,4415	-15,5	-3,7
1,442	-12,6	-2,8
1,4425	-8,8	-1,9
1,443	-4,4	-1,5
1,4435	-0,3	-1,4
1,444	2,9	-1,6
1,4445	5,3	-2,0
1,445	7,5	-2,9
1,4455	9,6	-4,1
1,446	11,0	-5,3
1,4465	11,6	-6,1
1,447	12,8	-6,2
1,4475	16,3	-5,9
1,448	21,6	-5,6
1,4485	26,5	-5,4
1,449	28,8	-5,4
1,4495	27,2	-5,3
1,45	21,2	-5,2
1,4505	11,5	-5,1
1,451	-1,3	-5,0
1,4515	-16,5	-4,8
1,452	-33,9	-4,4
1,4525	-51,9	-3,8
1,453	-68,8	-3,0
1,4535	-83,0	-2,0
1,454	-93,4	-0,9
1,4545	-100,3	-0,1
1,455	-103,9	-0,1
1,4555	-104,2	-0,9
1,456	-100,6	-1,9
1,4565	-92,9	-2,6
1,457	-82,3	-2,5
1,4575	-70,1	-1,9
1,458	-57,0	-1,2
1,4585	-43,3	-0,7
1,459	-30,3	-0,6
1,4595	-19,8	-0,8
1,46	-12,8	-1,3
1,4605	-9,0	-1,9
1,461	-7,5	-2,5
1,4615	-7,6	-3,1
1,462	-9,3	-3,7
1,4625	-12,5	-4,0
1,463	-16,6	-3,9
1,4635	-20,9	-3,5
1,464	-24,8	-2,8
1,4645	-27,7	-1,9
1,465	-29,8	-1,1
1,4655	-31,5	-0,4
1,466	-32,8	-0,1
1,4665	-33,7	-0,1
1,467	-33,9	-0,5
1,4675	-33,2	-1,2
1,468	-31,9	-1,9
1,4685	-30,7	-2,3
1,469	-30,6	-2,2
1,4695	-32,3	-1,2
1,47	-35,3	0,4
1,4705	-38,2	2,2
1,471	-39,4	3,2
1,4715	-38,0	3,1
1,472	-34,0	2,0
1,4725	-28,0	0,4
1,473	-21,1	-1,0
1,4735	-14,4	-1,9
1,474	-8,1	-2,6
1,4745	-1,6	-3,0
1,475	5,1	-3,4
1,4755	11,3	-3,8
1,476	16,1	-4,3
1,4765	19,1	-5,0
1,477	20,7	-5,8
1,4775	21,8	-6,5
1,478	23,3	-7,1
1,4785	24,8	-7,6
1,479	25,8	-7,7
1,4795	25,1	-7,1
1,48	22,6	-5,6
1,4805	19,3	-3,6
1,481	16,7	-1,7
1,4815	14,9	-0,3
1,482	13,0	0,6
1,4825	9,2	0,8
1,483	2,3	0,5
1,4835	-6,9	-0,2
1,484	-17,2	-1,0
1,4845	-26,9	-1,8
1,485	-34,9	-2,1
1,4855	-40,7	-2,0
1,486	-44,4	-1,7
1,4865	-46,7	-1,2
1,487	-48,0	-0,5
1,4875	-48,8	0,3
1,488	-49,4	0,6
1,4885	-49,5	0,3
1,489	-48,3	-0,7
1,4895	-45,6	-1,9
1,49	-42,0	-2,9
1,4905	-38,2	-3,4
1,491	-34,6	-3,4
1,4915	-31,3	-2,9
1,492	-28,3	-2,3
1,4925	-25,3	-1,3
1,493	-22,5	-0,3
1,4935	-19,9	0,5
1,494	-17,4	1,1
1,4945	-14,6	1,4
1,495	-11,0	1,2
1,4955	-7,1	0,5
1,496	-3,9	-0,3
1,4965	-2,1	-0,8
1,497	-1,8	-1,2
1,4975	-2,8	-1,8
1,498	-4,7	-2,5
1,4985	-6,8	-3,4
1,499	-8,8	-4,1
1,4995	-10,4	-4,5
1,5	-11,5	-4,5
1,5005	-12,5	-4,2
1,501	-13,8	-3,7
1,5015	-15,4	-3,3
1,502	-17,5	-2,8
1,5025	-19,8	-2,5
1,503	-22,1	-2,0
1,5035	-24,5	-1,4
1,504	-26,7	-0,5
1,5045	-28,3	0,2
1,505	-29,1	0,6
1,5055	-29,4	0,4
1,506	-29,3	-0,3
1,5065	-29,5	-1,3
1,507	-30,2	-2,2
1,5075	-31,4	-2,7
1,508	-32,9	-2,8
1,5085	-34,1	-2,4
1,509	-34,4	-1,8
1,5095	-33,7	-1,4
1,51	-32,2	-1,1
1,5105	-30,1	-0,7
1,511	-27,8	-0,5
1,5115	-25,5	-0,7
1,512	-23,1	-1,2
1,5125	-20,6	-1,8
1,513	-17,8	-2,3
1,5135	-14,6	-2,7
1,514	-11,3	-3,0
1,5145	-8,0	-3,3
1,515	-4,5	-3,6
1,5155	-0,3	-3,8
1,516	4,8	-4,0
1,5165	9,9	-4,2
1,517	13,6	-4,6
1,5175	14,4	-5,0
1,518	12,1	-5,4
1,5185	8,1	-5,7
1,519	4,1	-5,6
1,5195	1,1	-5,2
1,52	-1,3	-4,3
1,5205	-3,9	-3,1
1,521	-7,3	-1,8
1,5215	-11,1	-0,7
1,522	-14,5	0,0
1,5225	-16,4	0,5
1,523	-16,4	1,0
1,5235	-14,4	1,4
1,524	-11,7	1,6
1,5245	-9,3	1,4
1,525	-7,6	0,8
1,5255	-6,4	-0,1
1,526	-5,4	-0,8
1,5265	-4,7	-1,1
1,527	-4,7	-1,1
1,5275	-5,6	-1,0
1,528	-7,3	-1,0
1,5285	-8,9	-1,1
1,529	-9,2	-1,2
1,5295	-7,1	-1,2
1,53	-2,2	-1,1
1,5305	5,0	-1,0
1,531	12,8	-1,0
1,5315	20,0	-1,4
1,532	25,7	-2,3
1,5325	29,5	-3,7
1,533	31,6	-5,3
1,5335	31,7	-6,7
1,534	29,0	-7,1
1,5345	23,1	-6,4
1,535	15,1	-4,8
1,5355	6,4	-2,6
1,536	-1,9	-0,4
1,5365	-9,8	1,5
1,537	-17,2	2,9
1,5375	-24,4	3,4
1,538	-31,4	2,8
1,5385	-38,3	1,1
1,539	-44,6	-0,8
1,5395	-49,7	-2,5
1,54	-52,8	-3,6
1,5405	-53,8	-3,9
1,541	-53,1	-3,7
1,5415	-51,3	-3,1
1,542	-48,8	-2,4
1,5425	-45,9	-1,5
1,543	-42,4	-0,7
1,5435	-38,5	0,1
1,544	-34,0	0,7
1,5445	-28,7	0,8
1,545	-22,6	0,5
1,5455	-16,2	0,2
1,546	-10,0	0,2
1,5465	-4,6	0,3
1,547	-0,3	0,6
1,5475	2,6	0,9
1,548	4,0	1,2
1,5485	3,8	1,4
1,549	2,4	1,4
1,5495	0,2	1,1
1,55	-2,3	0,6
1,5505	-4,8	-0,0
1,551	-7,6	-0,4
1,5515	-10,3	-0,4
1,552	-12,6	-0,1
1,5525	-14,0	0,3
1,553	-14,8	0,8
1,5535	-15,6	1,7
1,554	-17,0	2,8
1,5545	-18,6	3,8
1,555	-19,1	4,3
1,5555	-17,2	4,2
1,556	-13,0	3,8
1,5565	-7,5	3,6
1,557	-2,5	3,8
1,5575	0,8	4,2
1,558	1,9	4,6
1,5585	1,2	4,8
1,559	-0,8	4,8
1,5595	-3,5	4,7
1,56	-6,7	4,7
1,5605	-9,9	4,7
1,561	-12,6	4,9
1,5615	-14,4	5,0
1,562	-15,8	5,1
1,5625	-17,6	5,1
1,563	-20,5	5,3
1,5635	-24,0	5,9
1,564	-27,2	6,7
1,5645	-29,5	7,3
1,565	-30,8	7,4
1,5655	-31,8	7,2
1,566	-32,7	6,8
1,5665	-34,0	6,3
1,567	-35,4	6,0
1,5675	-36,2	5,7
1,568	-35,1	5,4
1,5685	-32,0	5,0
1,569	-28,0	4,6
1,5695	-24,0	4,4
1,57	-20,6	4,7
1,5705	-17,7	5,4
1,571	-14,8	6,1
1,5715	-12,0	6,3
1,572	-9,2	6,2
1,5725	-6,9	6,0
1,573	-5,3	6,2
1,5735	-5,1	6,6
1,574	-6,2	7,1
1,5745	-8,7	7,4
1,575	-11,8	7,4
1,5755	-14,7	7,1
1,576	-17,0	6,6
1,5765	-18,7	6,0
1,577	-19,8	5,6
1,5775	-20,1	5,8
1,578	-19,5	6,4
1,5785	-18,3	7,2
1,579	-17,1	7,9
1,5795	-16,3	8,5
1,58	-15,9	8,9
1,5805	-15,8	9,0
1,581	-16,1	8,5
1,5815	-16,7	7,7
1,582	-17,7	7,0
1,5825	-18,9	6,5
1,583	-20,0	6,2
1,5835	-20,9	6,1
1,584	-21,9	6,1
1,5845	-22,7	6,5
1,585	-23,3	7,0
1,5855	-23,3	7,7
1,586	-22,9	8,3
1,5865	-22,1	8,9
1,587	-21,2	9,4
1,5875	-20,3	9,3
1,588	-20,0	8,5
1,5885	-20,3	6,8
1,589	-21,0	4,8
1,5895	-21,2	2,8
1,59	-20,5	1,3
1,5905	-18,5	0,8
1,591	-15,8	1,2
1,5915	-13,2	2,4
1,592	-11,3	4,1
1,5925	-9,8	5,9
1,593	-7,6	7,4
1,5935	-4,1	8,5
1,594	0,6	9,0
1,5945	5,6	8,8
1,595	9,8	7,9
1,5955	12,3	6,9
1,596	13,0	6,3
1,5965	11,9	6,4
1,597	9,4	7,1
1,5975	5,8	8,3
1,598	1,2	9,9
1,5985	-3,6	11,8
1,599	-8,3	13,4
1,5995	-12,3	14,4
1,6	-16,3	14,8
1,6005	-20,6	14,3
1,601	-25,1	13,2
1,6015	-29,4	11,9
1,602	-33,3	10,7
1,6025	-37,0	9,8
1,603	-40,2	9,3
1,6035	-42,3	9,0
1,604	-42,9	9,0
1,6045	-42,5	8,9
1,605	-41,8	8,7
1,6055	-41,8	8,3
1,606	-42,7	8,0
1,6065	-44,0	7,9
1,607	-45,3	8,3
1,6075	-45,8	8,8
1,608	-45,1	9,1
1,6085	-43,1	9,2
1,609	-40,1	9,2
1,6095	-36,1	9,4
1,61	-31,2	10,1
1,6105	-25,7	11,0
1,611	-20,1	11,8
1,6115	-15,1	12,2
1,612	-11,3	12,3
1,6125	-9,1	12,3
1,613	-8,9	12,5
1,6135	-10,0	12,8
1,614	-11,5	13,1
1,6145	-12,3	13,3
1,615	-11,1	13,4
1,6155	-7,6	13,2
1,616	-2,7	12,6
1,6165	1,8	11,8
1,617	4,2	10,9
1,6175	4,5	9,9
1,618	3,3	9,0
1,6185	1,1	8,2
1,619	-1,9	7,6
1,6195	-6,1	7,1
1,62	-11,3	6,7
1,6205	-17,3	6,5
1,621	-22,9	6,4
1,6215	-27,7	6,5
1,622	-31,5	6,8
1,6225	-34,8	7,0
1,623	-38,0	7,1
1,6235	-41,0	7,4
1,624	-43,3	7,9
1,6245	-44,0	8,5
1,625	-43,0	9,3
1,6255	-40,6	10,1
1,626	-36,1	11,0
1,6265	-28,8	11,6
1,627	-18,6	11,5
1,6275	-6,8	10,8
1,628	4,4	9,3
1,6285	13,4	7,2
1,629	19,2	5,1
1,6295	21,5	3,5
1,63	20,4	3,0
1,6305	16,3	3,4
1,631	10,0	4,5
1,6315	2,4	5,6
1,632	-5,6	6,5
1,6325	-12,9	7,0
1,633	-18,9	7,7
1,6335	-22,7	8,6
1,634	-24,4	9,8
1,6345	-25,0	11,1
1,635	-25,6	12,1
1,6355	-26,7	12,5
1,636	-27,9	12,3
1,6365	-28,9	11,8
1,637	-29,3	11,2
1,6375	-28,9	10,3
1,638	-27,7	9,3
1,6385	-26,1	8,2
1,639	-24,4	7,2
1,6395	-22,2	6,7
1,64	-18,9	6,5
1,6405	-13,8	6,6
1,641	-7,1	7,0
1,6415	0,0	7,5
1,642	6,2	7,9
1,6425	10,3	7,8
1,643	11,5	7,3
1,6435	9,6	6,8
1,644	5,1	6,6
1,6445	-1,2	6,5
1,645	-8,7	6,3
1,6455	-16,8	5,7
1,646	-25,0	5,0
1,6465	-32,3	4,7
1,647	-37,8	4,8
1,6475	-41,2	5,4
1,648	-41,8	6,3
1,6485	-39,6	7,2
1,649	-35,0	8,0
1,6495	-28,9	8,5
1,65	-21,3	8,5
1,6505	-12,0	8,0
1,651	-0,9	7,4
1,6515	10,8	7,0
1,652	21,3	6,9
1,6525	29,5	6,8
1,653	34,7	6,6
1,6535	36,8	6,4
1,654	36,4	6,2
1,6545	34,7	5,7
1,655	32,4	5,1
1,6555	29,1	4,6
1,656	24,0	4,5
1,6565	17,2	4,8
1,657	9,4	5,2
1,6575	1,6	5,8
1,658	-5,5	6,5
1,6585	-11,7	7,2
1,659	-16,9	7,9
1,6595	-21,0	8,6
1,66	-23,8	9,3
1,6605	-25,0	10,2
1,661	-24,7	10,7
1,6615	-23,8	10,6
1,662	-22,8	9,8
1,6625	-22,4	8,5
1,663	-22,5	7,3
1,6635	-23,1	6,2
1,664	-24,6	5,1
1,6645	-27,1	4,3
1,665	-29,9	3,8
1,6655	-31,8	3,4
1,666	-32,1	3,1
1,6665	-30,5	2,4
1,667	-27,9	1,6
1,6675	-25,0	0,8
1,668	-22,3	0,4
1,6685	-19,8	0,9
1,669	-17,3	1,9
1,6695	-14,9	3,3
1,67	-12,9	4,4
1,6705	-11,1	5,1
1,671	-9,1	5,1
1,6715	-6,5	4,8
1,672	-3,6	4,3
1,6725	-0,8	4,1
1,673	1,4	4,5
1,6735	3,1	5,4
1,674	4,0	6,5
1,6745	3,8	7,4
1,675	1,9	7,8
1,6755	-1,5	7,6
1,676	-6,2	7,0
1,6765	-11,3	6,2
1,677	-16,0	5,7
1,6775	-20,0	5,8
1,678	-23,2	6,2
1,6785	-25,5	6,9
1,679	-27,1	7,6
1,6795	-28,2	8,3
1,68	-29,0	8,9
1,6805	-29,5	9,1
1,681	-29,1	8,8
1,6815	-27,7	8,1
1,682	-25,3	7,2
1,6825	-22,5	6,5
1,683	-19,4	6,0
1,6835	-15,2	5,6
1,684	-9,3	5,3
1,6845	-2,1	5,0
1,685	4,8	4,9
1,6855	9,9	5,2
1,686	12,3	5,8
1,6865	11,7	6,7
1,687	8,6	7,5
1,6875	4,0	7,8
1,688	-1,7	7,4
1,6885	-8,8	6,8
1,689	-17,8	6,1
1,6895	-27,8	5,8
1,69	-37,5	6,0
1,6905	-45,3	6,3
1,691	-50,3	7,0
1,6915	-52,0	7,8
1,692	-50,9	8,4
1,6925	-47,7	8,6
1,693	-43,2	8,1
1,6935	-38,1	7,1
1,694	-33,0	5,9
1,6945	-28,0	4,7
1,695	-23,1	3,8
1,6955	-18,6	3,3
1,696	-14,6	3,1
1,6965	-11,0	2,9
1,697	-7,5	2,5
1,6975	-3,8	2,3
1,698	0,8	2,3
1,6985	6,1	3,0
1,699	11,7	3,8
1,6995	16,5	4,7
1,7	20,0	5,4
1,7005	22,3	6,1
1,701	23,9	7,0
1,7015	24,5	7,9
1,702	23,7	8,6
1,7025	20,9	9,2
1,703	16,8	9,5
1,7035	12,5	9,6
1,704	8,8	9,4
1,7045	5,7	9,0
1,705	3,0	8,3
1,7055	0,2	7,5
1,706	-3,1	6,8
1,7065	-6,7	6,3
1,707	-10,6	6,2
1,7075	-14,2	6,7
1,708	-17,1	7,8
1,7085	-19,0	9,0
1,709	-19,2	10,2
1,7095	-17,3	10,9
1,71	-13,3	11,2
1,7105	-8,5	11,2
1,711	-3,8	10,9
1,7115	-0,1	10,5
1,712	2,9	10,2
1,7125	5,2	10,2
1,713	6,9	10,4
1,7135	8,3	10,5
1,714	9,8	10,0
1,7145	11,2	8,8
1,715	12,5	7,4
1,7155	13,7	6,1
1,716	14,4	5,0
1,7165	14,4	4,1
1,717	13,5	3,3
1,7175	11,8	2,4
1,718	9,8	1,5
1,7185	7,3	0,8
1,719	4,5	0,8
1,7195	1,5	1,4
1,72	-1,2	2,4
1,7205	-2,9	3,3
1,721	-4,0	3,9
1,7215	-4,9	4,3
1,722	-6,1	4,6
1,7225	-7,8	5,1
1,723	-9,6	5,9
1,7235	-10,8	6,9
1,724	-10,8	8,0
1,7245	-9,5	8,6
1,725	-7,5	8,8
1,7255	-5,8	8,6
1,726	-4,4	8,2
1,7265	-3,2	7,9
1,727	-1,7	7,6
1,7275	0,1	6,8
1,728	2,1	5,6
1,7285	4,2	3,9
1,729	6,1	2,1
1,7295	7,0	0,9
1,73	6,4	0,6
1,7305	4,1	1,3
1,731	0,3	2,6
1,7315	-3,9	4,3
1,732	-7,5	5,9
1,7325	-9,5	7,3
1,733	-9,5	8,1
1,7335	-7,7	8,5
1,734	-4,3	8,6
1,7345	0,4	8,6
1,735	5,5	8,5
1,7355	9,5	8,2
1,736	11,1	7,3
1,7365	10,0	6,3
1,737	7,1	5,4
1,7375	3,4	5,0
1,738	0,0	5,0
1,7385	-3,0	5,3
1,739	-5,9	5,5
1,7395	-8,7	5,5
1,74	-10,8	5,3
1,7405	-11,9	5,0
1,741	-11,3	5,1
1,7415	-8,9	5,3
1,742	-5,4	5,7
1,7425	-2,1	6,0
1,743	-0,1	6,0
1,7435	0,3	5,8
1,744	-0,4	5,7
1,7445	-1,9	5,8
1,745	-3,7	6,3
1,7455	-5,4	7,1
1,746	-6,9	8,3
1,7465	-8,8	9,8
1,747	-11,5	11,2
1,7475	-15,1	12,0
1,748	-19,4	11,8
1,7485	-24,4	10,5
1,749	-29,8	8,6
1,7495	-34,2	6,5
1,75	-36,3	5,0
1,7505	-35,8	4,3
1,751	-33,3	4,5
1,7515	-30,3	5,3
1,752	-28,2	6,4
1,7525	-27,8	7,3
1,753	-29,2	8,3
1,7535	-31,6	9,1
1,754	-34,2	9,6
1,7545	-36,3	9,6
1,755	-37,7	9,5
1,7555	-38,7	9,6
1,756	-39,2	10,2
1,7565	-38,5	10,8
1,757	-36,6	11,1
1,7575	-34,2	11,0
1,758	-32,5	10,7
1,7585	-31,5	10,4
1,759	-29,1	10,3
1,7595	-22,7	10,3
1,76	-11,9	10,5
1,7605	1,3	10,8
1,761	14,7	11,0
1,7615	27,4	11,0
1,762	38,8	10,6
1,7625	47,9	10,1
1,763	53,5	9,7
1,7635	54,9	9,6
1,764	52,3	9,9
1,7645	46,4	10,2
1,765	37,9	10,1
1,7655	28,3	9,7
1,766	18,9	9,0
1,7665	11,2	8,1
1,767	5,5	7,3
1,7675	1,1	6,9
1,768	-3,1	7,1
1,7685	-7,8	8,0
1,769	-12,6	9,4
1,7695	-16,8	11,4
1,77	-19,6	13,3
1,7705	-20,0	14,6
1,771	-18,6	14,7
1,7715	-16,7	13,8
1,772	-15,8	12,4
1,7725	-16,5	11,1
1,773	-18,5	10,0
1,7735	-21,0	9,0
1,774	-22,8	8,4
1,7745	-23,4	8,0
1,775	-22,7	7,8
1,7755	-21,0	7,9
1,776	-18,8	8,3
1,7765	-16,1	9,0
1,777	-12,4	9,8
1,7775	-7,8	10,4
1,778	-2,3	10,8
1,7785	2,8	10,7
1,779	6,6	10,3
1,7795	8,2	9,9
1,78	7,5	9,5
1,7805	5,5	9,1
1,781	3,1	8,8
1,7815	1,2	8,6
1,782	-0,2	8,6
1,7825	-1,2	8,8
1,783	-2,0	8,9
1,7835	-2,9	9,0
1,784	-4,0	8,8
1,7845	-5,3	8,6
1,785	-6,6	8,5
1,7855	-7,7	8,7
1,786	-9,0	9,5
1,7865	-10,7	10,5
1,787	-13,1	11,6
1,7875	-16,3	12,3
1,788	-20,2	12,5
1,7885	-24,7	12,2
1,789	-29,1	11,6
1,7895	-32,2	11,0
1,79	-33,1	10,7
1,7905	-32,2	10,9
1,791	-30,4	11,5
1,7915	-28,8	12,4
1,792	-28,0	13,3
1,7925	-28,7	13,9
1,793	-30,7	14,2
1,7935	-33,0	14,1
1,794	-34,8	13,5
1,7945	-35,2	12,5
1,795	-33,6	11,2
1,7955	-29,7	9,9
1,796	-24,0	9,1
1,7965	-17,8	9,1
1,797	-12,3	9,6
1,7975	-7,2	10,2
1,798	-1,8	10,8
1,7985	4,4	11,1
1,799	11,0	11,1
1,7995	17,0	10,7
1,8	21,4	10,2
1,8005	24,1	9,4
1,801	25,2	8,4
1,8015	25,2	7,3
1,802	24,4	6,6
1,8025	23,2	6,4
1,803	21,7	6,8
1,8035	19,7	7,5
1,804	17,4	8,3
1,8045	15,3	9,1
1,805	13,8	9,6
1,8055	12,8	9,8
1,806	11,6	9,6
1,8065	9,9	9,1
1,807	7,4	8,7
1,8075	3,9	8,8
1,808	-0,4	9,6
1,8085	-4,9	10,9
1,809	-8,3	12,5
1,8095	-10,0	14,1
1,81	-10,1	15,3
1,8105	-9,8	15,8
1,811	-10,4	15,4
1,8115	-13,0	14,1
1,812	-17,9	12,2
1,8125	-24,2	10,7
1,813	-30,4	10,1
1,8135	-34,6	10,5
1,814	-35,9	11,4
1,8145	-34,6	12,6
1,815	-31,6	13,6
1,8155	-28,0	14,2
1,816	-24,3	14,4
1,8165	-20,8	14,3
1,817	-17,5	14,2
1,8175	-14,4	13,9
1,818	-11,2	13,5
1,8185	-8,1	13,1
1,819	-5,5	12,8
1,8195	-3,4	12,5
1,82	-1,4	12,3
1,8205	1,2	12,4
1,821	5,0	12,6
1,8215	10,0	12,7
1,822	15,4	12,4
1,8225	19,8	11,7
1,823	22,7	10,7
1,8235	23,9	9,8
1,824	23,9	9,3
1,8245	23,3	9,1
1,825	22,4	9,4
1,8255	22,0	9,9
1,826	22,8	10,4
1,8265	24,2	10,7
1,827	25,5	10,7
1,8275	26,5	10,8
1,828	27,4	11,1
1,8285	28,4	11,6
1,829	28,7	12,0
1,8295	27,5	12,4
1,83	24,2	12,6
1,8305	18,9	12,7
1,831	12,2	12,6
1,8315	4,7	12,7
1,832	-2,3	12,9
1,8325	-7,3	13,4
1,833	-9,3	13,9
1,8335	-8,3	14,1
1,834	-6,2	13,8
1,8345	-4,7	13,2
1,835	-4,5	12,7
1,8355	-5,6	12,4
1,836	-7,8	12,1
1,8365	-11,1	12,1
1,837	-15,2	12,3
1,8375	-19,5	12,7
1,838	-23,4	13,2
1,8385	-26,7	13,7
1,839	-29,3	14,1
1,8395	-31,3	14,3
1,84	-33,2	14,5
1,8405	-34,9	14,7
1,841	-35,7	15,0
1,8415	-34,5	15,3
1,842	-30,6	15,4
1,8425	-24,2	15,4
1,843	-15,5	15,1
1,8435	-5,1	14,5
1,844	6,3	13,8
1,8445	16,9	12,8
1,845	25,2	11,7
1,8455	30,5	10,4
1,846	33,4	9,6
1,8465	34,9	9,4
1,847	35,1	9,7
1,8475	33,3	10,1
1,848	29,3	10,4
1,8485	24,0	10,7
1,849	18,7	10,9
1,8495	14,2	11,3
1,85	10,1	11,7
1,8505	6,2	12,3
1,851	1,9	12,7
1,8515	-2,4	12,8
1,852	-6,0	12,6
1,8525	-8,7	12,3
1,853	-10,8	12,4
1,8535	-12,6	13,0
1,854	-13,6	13,8
1,8545	-13,7	14,3
1,855	-12,7	14,7
1,8555	-11,2	15,0
1,856	-9,6	15,3
1,8565	-8,3	15,6
1,857	-7,3	15,6
1,8575	-7,3	15,3
1,858	-7,9	14,7
1,8585	-8,7	13,8
1,859	-8,6	12,8
1,8595	-7,1	11,7
1,86	-3,9	10,8
1,8605	0,6	10,2
1,861	5,8	10,2
1,8615	10,3	10,6
1,862	12,9	11,0
1,8625	12,6	11,2
1,863	10,3	11,2
1,8635	7,1	11,3
1,864	4,3	11,5
1,8645	2,2	11,8
1,865	1,0	11,8
1,8655	0,4	11,5
1,866	0,1	10,8
1,8665	0,3	9,8
1,867	0,7	9,2
1,8675	1,4	9,1
1,868	2,0	9,5
1,8685	2,0	9,8
1,869	0,9	9,5
1,8695	-0,9	8,6
1,87	-2,9	7,8
1,8705	-4,4	7,5
1,871	-5,0	7,7
1,8715	-5,2	8,0
1,872	-5,0	8,4
1,8725	-4,6	9,0
1,873	-3,9	9,6
1,8735	-3,2	10,1
1,874	-3,3	10,3
1,8745	-4,6	10,3
1,875	-7,0	10,3
1,8755	-10,0	10,1
1,876	-13,2	9,9
1,8765	-16,4	9,5
1,877	-19,3	9,1
1,8775	-21,6	8,6
1,878	-22,9	8,1
1,8785	-23,2	7,8
1,879	-22,4	7,9
1,8795	-20,4	8,8
1,88	-17,2	10,2
1,8805	-13,3	11,8
1,881	-9,2	12,8
1,8815	-5,3	13,1
1,882	-1,6	12,2
1,8825	2,3	10,4
1,883	6,0	8,3
1,8835	9,1	6,4
1,884	11,0	5,2
1,8845	12,2	4,8
1,885	13,4	5,0
1,8855	15,0	5,9
1,886	16,6	7,3
1,8865	17,3	8,8
1,887	16,4	9,8
1,8875	13,5	10,0
1,888	8,4	9,2
1,8885	1,6	7,6
1,889	-6,1	6,1
1,8895	-14,1	5,1
1,89	-21,6	4,9
1,8905	-27,8	5,7
1,891	-31,7	7,1
1,8915	-33,4	8,6
1,892	-33,5	9,7
1,8925	-32,6	10,1
1,893	-31,0	10,0
1,8935	-28,9	9,9
1,894	-26,5	10,0
1,8945	-24,0	10,1
1,895	-21,5	10,0
1,8955	-18,9	9,6
1,896	-16,6	9,2
1,8965	-15,0	8,8
1,897	-14,2	8,7
1,8975	-13,9	8,7
1,898	-13,7	8,8
1,8985	-13,7	9,0
1,899	-13,4	9,1
1,8995	-12,3	8,9
1,9	-10,2	8,3
1,9005	-7,7	7,4
1,901	-5,8	6,7
1,9015	-5,3	6,5
1,902	-5,7	6,8
1,9025	-6,6	7,5
1,903	-7,7	8,3
1,9035	-9,1	9,2
1,904	-10,5	9,7
1,9045	-11,9	9,6
1,905	-13,3	9,0
1,9055	-14,6	8,2
1,906	-15,6	7,3
1,9065	-15,9	6,8
1,907	-15,9	6,7
1,9075	-15,7	6,9
1,908	-15,4	7,1
1,9085	-14,5	7,1
1,909	-12,3	7,1
1,9095	-8,1	7,3
1,91	-2,4	7,5
1,9105	3,9	7,6
1,911	9,3	7,3
1,9115	13,1	6,7
1,912	15,2	5,8
1,9125	15,9	5,1
1,913	15,3	4,8
1,9135	12,8	4,7
1,914	8,3	4,6
1,9145	2,3	4,6
1,915	-3,9	4,6
1,9155	-9,5	4,8
1,916	-14,5	5,2
1,9165	-18,8	5,4
1,917	-21,9	5,4
1,9175	-22,9	5,2
1,918	-22,2	5,1
1,9185	-20,7	5,5
1,919	-20,0	6,5
1,9195	-20,7	8,2
1,92	-22,5	10,1
1,9205	-24,6	11,8
1,921	-26,8	12,8
1,9215	-28,8	12,7
1,922	-30,5	11,7
1,9225	-30,8	10,3
1,923	-28,4	9,0
1,9235	-22,8	8,3
1,924	-14,9	7,9
1,9245	-6,9	7,7
1,925	-0,6	7,4
1,9255	3,7	7,1
1,926	6,3	6,8
1,9265	8,1	6,6
1,927	9,3	6,4
1,9275	9,9	6,3
1,928	9,6	5,9
1,9285	8,4	5,7
1,929	6,5	5,8
1,9295	3,8	6,4
1,93	0,9	6,9
1,9305	-0,5	7,2
1,931	0,8	7,0
1,9315	4,3	6,3
1,932	8,3	5,4
1,9325	11,7	4,3
1,933	13,8	3,0
1,9335	14,3	1,8
1,934	12,9	0,8
1,9345	9,8	0,4
1,935	5,1	0,5
1,9355	-0,8	1,1
1,936	-7,3	2,1
1,9365	-14,2	3,3
1,937	-20,7	4,6
1,9375	-26,2	5,7
1,938	-30,2	6,6
1,9385	-32,8	7,0
1,939	-34,0	6,9
1,9395	-34,3	6,1
1,94	-33,8	5,0
1,9405	-32,8	4,0
1,941	-31,8	3,8
1,9415	-30,6	4,4
1,942	-28,5	5,6
1,9425	-24,8	7,0
1,943	-19,6	8,2
1,9435	-13,3	8,8
1,944	-7,4	8,8
1,9445	-2,8	8,3
1,945	0,3	7,4
1,9455	2,3	6,4
1,946	3,5	6,0
1,9465	4,1	6,2
1,947	4,1	6,6
1,9475	3,5	6,8
1,948	2,5	6,9
1,9485	1,2	7,1
1,949	-0,1	7,3
1,9495	-1,1	7,5
1,95	-1,9	7,7
1,9505	-2,6	7,8
1,951	-3,2	7,6
1,9515	-3,8	7,5
1,952	-4,7	7,5
1,9525	-5,6	7,6
1,953	-6,6	7,8
1,9535	-7,5	8,0
1,954	-7,8	8,0
1,9545	-7,5	7,8
1,955	-6,5	7,1
1,9555	-5,6	6,0
1,956	-4,8	4,8
1,9565	-3,9	3,7
1,957	-2,6	3,0
1,9575	-1,1	3,0
1,958	0,2	3,5
1,9585	0,8	4,3
1,959	0,8	4,6
1,9595	0,2	4,4
1,96	-0,3	4,1
1,9605	-0,3	3,8
1,961	0,2	4,0
1,9615	0,8	4,3
1,962	1,1	4,6
1,9625	0,5	5,1
1,963	-0,9	6,2
1,9635	-2,7	7,7
1,964	-4,8	8,8
1,9645	-6,8	9,2
1,965	-8,7	8,8
1,9655	-10,5	8,0
1,966	-12,3	7,0
1,9665	-14,1	6,1
1,967	-15,9	5,4
1,9675	-17,8	5,0
1,968	-19,7	4,8
1,9685	-21,4	5,0
1,969	-22,9	5,7
1,9695	-24,1	6,6
1,97	-25,2	7,6
1,9705	-26,4	8,3
1,971	-27,1	8,3
1,9715	-26,6	7,9
1,972	-24,7	7,1
1,9725	-22,1	6,4
1,973	-19,2	6,0
1,9735	-16,4	5,8
1,974	-13,7	5,8
1,9745	-10,8	5,4
1,975	-8,0	4,9
1,9755	-5,6	4,2
1,976	-3,7	3,7
1,9765	-2,4	3,3
1,977	-1,9	3,2
1,9775	-1,8	3,3
1,978	-1,5	3,7
1,9785	-0,8	4,6
1,979	-0,3	6,0
1,9795	-1,0	7,8
1,98	-3,7	9,7
1,9805	-8,6	11,3
1,981	-15,1	12,1
1,9815	-22,6	11,9
1,982	-30,0	11,0
1,9825	-36,5	10,0
1,983	-41,2	9,0
1,9835	-43,1	8,0
1,984	-41,8	7,1
1,9845	-37,7	6,1
1,985	-31,9	5,1
1,9855	-26,1	4,3
1,986	-21,0	4,0
1,9865	-17,3	4,3
1,987	-15,3	5,1
1,9875	-14,7	5,8
1,988	-14,8	6,2
1,9885	-14,5	6,1
1,989	-13,0	5,8
1,9895	-10,3	5,3
1,99	-7,3	5,0
1,9905	-4,8	4,8
1,991	-3,6	5,0
1,9915	-3,6	5,4
1,992	-4,7	6,2
1,9925	-6,2	7,2
1,993	-6,8	8,3
1,9935	-5,0	9,0
1,994	-0,6	9,3
1,9945	5,5	8,9
1,995	11,4	8,3
1,9955	15,2	7,7
1,996	15,5	7,3
1,9965	12,3	7,2
1,997	6,9	7,3
1,9975	0,5	7,3
1,998	-5,5	7,1
1,9985	-10,2	6,8
1,999	-13,0	6,4
1,9995	-14,2	6,1
2	-14,3	5,8
2,0005	-14,0	5,3
2,001	-14,0	4,6
2,0015	-14,5	3,7
2,002	-15,6	2,8
2,0025	-17,6	2,3
2,003	-20,4	2,4
2,0035	-23,7	2,9
2,004	-26,2	3,6
2,0045	-26,8	4,3
2,005	-25,4	5,3
2,0055	-23,2	6,6
2,006	-20,5	8,2
2,0065	-17,0	9,9
2,007	-12,5	11,5
2,0075	-7,8	12,7
2,008	-4,3	13,5
2,0085	-2,6	14,0
2,009	-2,3	14,3
2,0095	-2,2	14,3
2,01	-2,0	14,2
2,0105	-1,8	13,7
2,011	-1,8	13,0
2,0115	-2,2	12,4
2,012	-2,8	11,8
2,0125	-3,5	11,7
2,013	-4,5	12,0
2,0135	-6,0	12,5
2,014	-7,9	13,0
2,0145	-10,3	13,1
2,015	-12,8	12,7
2,0155	-15,0	12,0
2,016	-16,6	11,4
2,0165	-17,4	11,0
2,017	-17,7	11,0
2,0175	-17,7	10,9
2,018	-17,8	10,4
2,0185	-18,0	9,7
2,019	-18,2	9,0
2,0195	-18,3	8,9
2,02	-18,6	9,3
2,0205	-19,2	10,2
2,021	-19,8	10,8
2,0215	-19,8	11,3
2,022	-18,8	11,5
2,0225	-16,6	11,4
2,023	-14,1	11,2
2,0235	-11,8	11,0
2,024	-9,8	11,1
2,0245	-8,1	11,4
2,025	-6,7	12,1
2,0255	-5,9	12,7
2,026	-6,1	13,1
2,0265	-6,8	13,3
2,027	-7,2	13,5
2,0275	-6,7	13,4
2,028	-5,1	12,9
2,0285	-1,9	12,1
2,029	2,7	11,1
2,0295	8,1	10,5
2,03	13,0	10,4
2,0305	16,5	10,6
2,031	18,0	10,8
2,0315	17,4	10,8
2,032	14,7	10,5
2,0325	10,5	9,9
2,033	5,3	9,0
2,0335	-0,3	8,3
2,034	-5,9	8,1
2,0345	-11,1	8,3
2,035	-15,3	9,1
2,0355	-18,0	10,5
2,036	-18,7	12,3
2,0365	-17,7	14,1
2,037	-15,6	15,3
2,0375	-13,1	15,8
2,038	-10,4	15,7
2,0385	-8,2	15,1
2,039	-6,4	14,3
2,0395	-5,0	13,3
2,04	-3,4	12,3
2,0405	-2,1	11,4
2,041	-1,7	11,0
2,0415	-2,6	10,9
2,042	-4,6	11,1
2,0425	-6,9	11,4
2,043	-9,2	11,9
2,0435	-11,0	12,2
2,044	-12,3	12,3
2,0445	-12,8	12,2
2,045	-12,8	11,6
2,0455	-12,6	10,8
2,046	-13,3	10,0
2,0465	-14,7	9,3
2,047	-16,7	9,1
2,0475	-18,3	9,3
2,048	-19,0	10,0
2,0485	-18,1	10,9
2,049	-15,4	11,7
2,0495	-11,5	12,1
2,05	-7,7	12,1
2,0505	-4,6	11,5
2,051	-2,5	10,6
2,0515	-1,3	9,8
2,052	-0,9	9,5
2,0525	-1,0	9,6
2,053	-1,4	9,8
2,0535	-2,1	9,7
2,054	-2,8	9,2
2,0545	-3,7	8,2
2,055	-4,8	7,2
2,0555	-6,4	6,2
2,056	-8,0	5,8
2,0565	-9,2	6,1
2,057	-9,7	7,2
2,0575	-9,9	8,9
2,058	-10,8	10,5
2,0585	-13,0	11,8
2,059	-16,9	12,5
2,0595	-22,4	12,6
2,06	-29,0	12,3
2,0605	-36,1	11,9
2,061	-42,4	11,6
2,0615	-46,8	11,3
2,062	-48,7	10,7
2,0625	-48,2	9,9
2,063	-45,8	9,4
2,0635	-42,0	9,3
2,064	-37,8	9,3
2,0645	-33,8	9,4
2,065	-30,5	9,2
2,0655	-27,5	8,8
2,066	-24,7	8,2
2,0665	-21,8	7,6
2,067	-18,4	7,2
2,0675	-14,6	7,0
2,068	-10,7	7,0
2,0685	-7,6	7,2
2,069	-6,0	7,6
2,0695	-5,8	8,3
2,07	-6,5	9,1
2,0705	-7,2	9,9
2,071	-6,8	10,5
2,0715	-3,3	10,8
2,072	5,1	10,8
2,0725	18,1	10,4
2,073	33,5	9,7
2,0735	48,2	9,1
2,074	59,4	9,0
2,0745	65,7	9,6
2,075	66,8	10,7
2,0755	62,8	11,8
2,076	54,5	12,4
2,0765	42,6	12,8
2,077	28,8	12,8
2,0775	14,9	12,6
2,078	2,5	12,2
2,0785	-7,8	11,6
2,079	-16,8	11,1
2,0795	-25,4	11,1
2,08	-34,2	11,8
2,0805	-42,7	12,9
2,081	-49,1	13,8
2,0815	-52,0	14,2
2,082	-50,8	14,1
2,0825	-45,8	13,4
2,083	-39,0	12,4
2,0835	-32,0	11,4
2,084	-25,8	10,7
2,0845	-20,5	10,6
2,085	-15,9	10,9
2,0855	-12,1	11,5
2,086	-9,9	12,1
2,0865	-9,8	12,8
2,087	-11,1	13,2
2,0875	-12,3	13,2
2,088	-12,1	12,7
2,0885	-10,4	11,8
2,089	-8,2	10,7
2,0895	-6,6	9,6
2,09	-6,0	9,0
2,0905	-6,1	9,0
2,091	-6,4	9,6
2,0915	-6,7	10,3
2,092	-7,0	10,9
2,0925	-7,6	11,4
2,093	-8,1	11,8
2,0935	-8,2	12,1
2,094	-7,6	12,1
2,0945	-6,4	12,0
2,095	-5,1	11,8
2,0955	-3,9	11,7
2,096	-3,0	12,0
2,0965	-2,6	12,6
2,097	-2,7	13,4
2,0975	-3,3	14,2
2,098	-4,0	14,9
2,0985	-4,7	15,4
2,099	-5,1	15,7
2,0995	-5,4	15,5
2,1	-5,5	14,9
2,1005	-5,1	14,1
2,101	-3,9	13,4
2,1015	-1,6	13,1
2,102	1,7	13,3
2,1025	5,3	13,7
2,103	8,8	14,4
2,1035	11,4	15,1
2,104	12,8	15,7
2,1045	13,0	15,8
2,105	12,1	15,3
2,1055	10,3	14,3
2,106	7,7	13,4
2,1065	4,6	13,0
2,107	1,0	12,9
2,1075	-3,1	13,0
2,108	-7,9	13,3
2,1085	-13,0	13,9
2,109	-18,0	14,9
2,1095	-22,3	16,2
2,11	-25,9	17,2
2,1105	-28,6	17,4
2,111	-30,4	16,6
2,1115	-31,7	15,2
2,112	-32,8	13,5
2,1125	-33,8	11,9
2,113	-34,7	10,9
2,1135	-35,2	10,4
2,114	-35,2	10,2
2,1145	-34,6	9,9
2,115	-33,7	9,5
2,1155	-32,2	9,3
2,116	-30,0	9,3
2,1165	-27,3	9,7
2,117	-24,3	10,3
2,1175	-21,4	10,8
2,118	-18,8	11,4
2,1185	-16,3	12,0
2,119	-14,3	12,5
2,1195	-12,5	12,7
2,12	-11,1	12,5
2,1205	-9,8	12,2
2,121	-8,3	11,7
2,1215	-6,5	11,3
2,122	-4,9	10,9
2,1225	-3,6	10,6
2,123	-2,4	10,2
2,1235	-0,9	9,9
2,124	1,2	9,9
2,1245	3,5	10,1
2,125	6,2	10,2
2,1255	9,3	10,4
2,126	13,3	10,6
2,1265	17,5	10,5
2,127	20,3	9,9
2,1275	20,9	9,1
2,128	19,3	8,2
2,1285	15,9	7,3
2,129	11,1	6,5
2,1295	4,8	6,3
2,13	-2,5	6,8
2,1305	-10,3	8,0
2,131	-17,9	9,4
2,1315	-24,9	10,7
2,132	-31,0	11,7
2,1325	-35,9	12,0
2,133	-39,0	11,8
2,1335	-39,8	11,2
2,134	-37,9	10,4
2,1345	-33,5	9,8
2,135	-27,3	9,5
2,1355	-20,3	9,7
2,136	-13,2	10,1
2,1365	-6,2	10,5
2,137	0,9	10,7
2,1375	7,9	10,6
2,138	14,0	10,2
2,1385	19,2	9,5
2,139	23,5	8,8
2,1395	26,7	8,3
2,14	27,6	8,0
2,1405	25,1	8,2
2,141	19,1	8,7
2,1415	11,1	9,5
2,142	3,5	10,3
2,1425	-1,8	11,0
2,143	-4,5	11,3
2,1435	-5,2	11,2
2,144	-4,6	10,8
2,1445	-2,8	10,2
2,145	0,4	9,4
2,1455	4,4	8,5
2,146	7,9	7,9
2,1465	9,2	7,8
2,147	7,5	8,3
2,1475	2,8	9,0
2,148	-3,8	9,8
2,1485	-11,6	10,3
2,149	-19,9	10,7
2,1495	-27,7	10,8
2,15	-33,2	10,6
2,1505	-35,2	10,4
2,151	-33,8	10,3
2,1515	-30,5	10,6
2,152	-26,6	11,3
2,1525	-22,3	11,8
2,153	-17,7	12,0
2,1535	-13,1	11,9
2,154	-9,4	11,5
2,1545	-6,5	10,9
2,155	-3,8	9,9
2,1555	-0,3	8,9
2,156	4,5	8,3
2,1565	11,1	8,2
2,157	19,0	8,5
2,1575	26,7	8,9
2,158	32,3	9,4
2,1585	34,0	9,9
2,159	31,5	10,5
2,1595	25,6	11,2
2,16	17,8	11,9
2,1605	10,1	12,3
2,161	3,9	12,5
2,1615	-0,3	12,2
2,162	-2,6	11,7
2,1625	-4,0	11,1
2,163	-5,8	10,7
2,1635	-8,6	10,4
2,164	-12,3	10,2
2,1645	-16,1	10,0
2,165	-19,7	9,6
2,1655	-22,3	9,0
2,166	-23,7	8,3
2,1665	-23,3	7,9
2,167	-21,4	7,9
2,1675	-18,4	8,2
2,168	-15,3	8,8
2,1685	-12,4	9,5
2,169	-9,7	10,3
2,1695	-7,1	10,8
2,17	-4,3	11,1
2,1705	-1,3	11,1
2,171	2,0	10,5
2,1715	5,4	9,7
2,172	8,0	8,7
2,1725	9,2	7,8
2,173	8,8	7,2
2,1735	7,4	6,9
2,174	5,1	6,8
2,1745	1,9	6,7
2,175	-1,4	6,7
2,1755	-4,1	6,8
2,176	-5,2	6,9
2,1765	-4,9	6,8
2,177	-3,7	6,5
2,1775	-2,6	6,3
2,178	-2,2	6,4
2,1785	-2,6	6,8
2,179	-4,0	7,1
2,1795	-6,1	7,4
2,18	-8,6	7,7
2,1805	-11,2	8,1
2,181	-13,5	8,4
2,1815	-15,6	8,7
2,182	-17,4	9,0
2,1825	-19,0	9,6
2,183	-20,0	10,4
2,1835	-20,3	11,3
2,184	-19,8	11,7
2,1845	-18,3	11,8
2,185	-15,3	11,7
2,1855	-11,1	11,8
2,186	-6,2	11,9
2,1865	-1,7	12,1
2,187	1,8	12,1
2,1875	4,0	11,7
2,188	5,1	11,1
2,1885	5,6	10,3
2,189	6,0	9,7
2,1895	6,7	9,2
2,19	7,4	8,6
2,1905	8,0	8,2
2,191	7,8	8,1
2,1915	6,8	8,4
2,192	4,9	8,8
2,1925	2,5	9,3
2,193	-0,1	9,3
2,1935	-2,7	8,7
2,194	-5,3	7,4
2,1945	-8,0	5,6
2,195	-10,4	3,6
2,1955	-12,1	2,1
2,196	-12,7	1,4
2,1965	-12,4	1,5
2,197	-11,6	1,8
2,1975	-10,6	2,0
2,198	-9,4	2,0
2,1985	-8,1	1,6
2,199	-6,7	0,9
2,1995	-5,4	0,0
2,2	-4,4	-0,8
2,2005	-4,1	-1,3
2,201	-4,9	-1,3
2,2015	-6,3	-0,7
2,202	-7,7	0,4
2,2025	-8,2	1,7
2,203	-7,8	3,1
2,2035	-6,9	4,3
2,204	-5,9	5,4
2,2045	-4,7	6,4
2,205	-3,1	7,3
2,2055	-0,8	8,2
2,206	2,0	8,7
2,2065	4,6	8,8
2,207	6,4	8,2
2,2075	7,0	7,4
2,208	6,3	6,7
2,2085	4,8	6,4
2,209	3,1	6,8
2,2095	2,3	7,6
2,21	2,4	8,5
2,2105	3,0	9,5
2,211	3,1	10,2
2,2115	1,9	10,2
2,212	-0,9	9,4
2,2125	-5,1	8,1
2,213	-9,9	7,0
2,2135	-13,9	6,6
2,214	-15,8	6,9
2,2145	-15,3	7,5
2,215	-13,1	7,8
2,2155	-10,6	7,7
2,216	-8,7	7,4
2,2165	-8,0	7,3
2,217	-8,8	7,3
2,2175	-10,6	7,4
2,218	-13,1	7,8
2,2185	-15,9	8,3
2,219	-18,3	9,0
2,2195	-20,1	9,7
2,22	-21,3	10,4
2,2205	-22,2	10,8
2,221	-23,4	10,9
2,2215	-24,7	10,6
2,222	-25,8	10,0
2,2225	-26,8	9,3
2,223	-27,5	8,6
2,2235	-26,7	7,9
2,224	-22,9	7,8
2,2245	-16,0	7,9
2,225	-7,6	8,3
2,2255	0,7	8,4
2,226	8,4	8,3
2,2265	15,6	7,9
2,227	21,6	7,2
2,2275	26,2	6,5
2,228	29,0	5,9
2,2285	30,2	5,4
2,229	29,7	5,1
2,2295	27,8	5,2
2,23	25,0	5,7
2,2305	21,2	6,3
2,231	16,4	6,7
2,2315	10,7	6,8
2,232	4,8	6,6
2,2325	-0,7	6,3
2,233	-5,4	5,8
2,2335	-9,4	5,1
2,234	-13,0	4,3
2,2345	-15,9	3,8
2,235	-17,7	3,8
2,2355	-18,1	4,2
2,236	-17,1	4,5
2,2365	-15,6	4,6
2,237	-14,4	4,4
2,2375	-13,4	3,9
2,238	-12,0	3,7
2,2385	-9,2	4,1
2,239	-4,8	5,3
2,2395	-0,3	6,9
2,24	2,5	8,6
2,2405	2,0	10,2
2,241	-2,2	11,4
2,2415	-9,3	12,2
2,242	-17,6	12,2
2,2425	-25,9	11,7
2,243	-33,2	10,8
2,2435	-38,9	9,8
2,244	-42,9	9,0
2,2445	-45,5	8,4
2,245	-46,8	7,9
2,2455	-47,1	7,6
2,246	-46,4	7,5
2,2465	-44,8	7,7
2,247	-42,1	7,9
2,2475	-38,5	8,1
2,248	-34,0	8,1
2,2485	-28,9	7,9
2,249	-23,2	7,5
2,2495	-17,2	6,9
2,25	-11,4	6,3
2,2505	-6,5	6,1
2,251	-2,8	5,9
2,2515	0,0	5,8
2,252	1,9	5,7
2,2525	3,1	5,7
2,253	3,3	5,9
2,2535	2,8	6,3
2,254	1,8	6,7
2,2545	1,1	6,8
2,255	0,7	6,5
2,2555	0,7	6,3
2,256	0,7	6,1
2,2565	1,0	6,2
2,257	1,9	6,5
2,2575	3,8	7,0
2,258	6,3	7,5
2,2585	8,9	7,9
2,259	11,7	8,2
2,2595	14,2	8,2
2,26	16,0	8,0
2,2605	16,7	7,7
2,261	16,1	7,2
2,2615	14,3	6,5
2,262	11,3	5,7
2,2625	7,2	5,1
2,263	2,0	5,1
2,2635	-3,5	6,0
2,264	-9,0	7,4
2,2645	-13,9	9,2
2,265	-17,3	10,7
2,2655	-18,4	11,5
2,266	-16,9	11,3
2,2665	-13,5	10,1
2,267	-9,5	8,5
2,2675	-5,9	7,1
2,268	-2,7	6,0
2,2685	0,1	5,4
2,269	2,4	5,1
2,2695	4,0	5,1
2,27	5,1	5,4
2,2705	6,3	6,0
2,271	8,2	6,9
2,2715	10,2	7,7
2,272	11,0	8,2
2,2725	10,2	8,3
2,273	7,5	8,2
2,2735	4,0	7,9
2,274	0,5	7,8
2,2745	-2,2	7,8
2,275	-3,8	7,8
2,2755	-3,9	7,9
2,276	-2,7	8,0
2,2765	-0,1	8,2
2,277	3,2	8,4
2,2775	6,7	8,5
2,278	9,9	8,4
2,2785	12,6	8,2
2,279	14,3	7,7
2,2795	14,6	7,2
2,28	13,1	6,6
2,2805	10,4	6,2
2,281	7,0	6,3
2,2815	3,4	6,8
2,282	0,0	7,8
2,2825	-3,5	8,8
2,283	-7,1	9,7
2,2835	-10,6	10,5
2,284	-13,2	11,2
2,2845	-14,5	11,5
2,285	-14,8	11,3
2,2855	-15,3	10,7
2,286	-16,5	9,7
2,2865	-18,2	8,9
2,287	-19,5	8,5
2,2875	-19,6	8,6
2,288	-18,2	8,7
2,2885	-16,3	8,5
2,289	-14,9	8,1
2,2895	-14,6	8,0
2,29	-15,2	8,6
2,2905	-16,4	9,9
2,291	-18,4	11,3
2,2915	-21,0	12,3
2,292	-23,8	12,4
2,2925	-26,0	11,8
2,293	-26,6	10,9
2,2935	-25,2	9,7
2,294	-22,4	8,3
2,2945	-18,7	7,2
2,295	-14,2	6,3
2,2955	-9,1	5,8
2,296	-4,1	5,6
2,2965	0,5	5,6
2,297	5,0	5,8
2,2975	9,6	6,1
2,298	14,0	6,4
2,2985	17,8	6,6
2,299	20,4	6,4
2,2995	22,2	5,7
2,3	23,4	4,6
2,3005	24,9	3,2
2,301	27,3	2,1
2,3015	30,5	1,6
2,302	33,8	1,7
2,3025	35,7	2,3
2,303	35,3	3,1
2,3035	32,3	4,1
2,304	27,6	5,1
2,3045	21,8	6,1
2,305	15,2	7,3
2,3055	8,3	8,5
2,306	1,1	9,8
2,3065	-6,1	10,8
2,307	-13,0	11,4
2,3075	-19,5	11,7
2,308	-25,0	11,8
2,3085	-29,0	11,8
2,309	-31,6	11,7
2,3095	-33,2	11,4
2,31	-34,2	10,7
2,3105	-34,3	9,6
2,311	-33,0	8,3
2,3115	-30,4	7,3
2,312	-26,8	6,7
2,3125	-22,6	6,5
2,313	-18,5	6,6
2,3135	-15,1	6,9
2,314	-12,7	7,5
2,3145	-10,7	8,2
2,315	-8,5	8,7
2,3155	-6,2	9,2
2,316	-4,1	9,3
2,3165	-2,6	9,1
2,317	-1,5	8,2
2,3175	-0,4	6,9
2,318	0,9	5,7
2,3185	2,3	4,9
2,319	3,7	4,7
2,3195	4,7	5,1
2,32	4,8	5,9
2,3205	4,3	7,0
2,321	3,9	8,1
2,3215	4,6	8,8
2,322	6,0	9,1
2,3225	7,1	9,1
2,323	7,3	8,7
2,3235	6,6	8,3
2,324	5,0	8,0
2,3245	2,4	8,1
2,325	-1,2	8,5
2,3255	-5,4	9,0
2,326	-9,7	9,4
2,3265	-13,8	9,6
2,327	-17,5	9,8
2,3275	-21,0	9,7
2,328	-23,9	9,5
2,3285	-25,4	9,0
2,329	-25,4	8,7
2,3295	-24,1	8,8
2,33	-21,7	9,3
2,3305	-18,4	9,8
2,331	-14,0	10,1
2,3315	-8,9	10,0
2,332	-3,6	9,3
2,3325	1,3	8,2
2,333	5,7	7,1
2,3335	9,5	6,4
2,334	12,4	6,2
2,3345	14,2	5,9
2,335	14,8	5,6
2,3355	14,2	5,4
2,336	12,8	5,5
2,3365	11,6	5,8
2,337	11,9	6,3
2,3375	14,1	6,5
2,338	17,8	6,2
2,3385	22,0	5,7
2,339	25,9	5,3
2,3395	29,3	5,1
2,34	31,7	5,2
2,3405	32,1	5,4
2,341	29,4	5,7
2,3415	23,4	5,9
2,342	15,1	5,9
2,3425	5,8	5,5
2,343	-2,9	4,8
2,3435	-10,0	4,1
2,344	-14,6	3,7
2,3445	-16,4	3,9
2,345	-15,6	4,5
2,3455	-12,7	5,3
2,346	-9,5	6,2
2,3465	-7,8	7,1
2,347	-8,3	8,1
2,3475	-10,3	9,0
2,348	-12,3	9,6
2,3485	-12,8	9,9
2,349	-11,3	10,0
2,3495	-8,1	10,1
2,35	-4,5	10,6
2,3505	-1,5	11,4
2,351	0,0	12,4
2,3515	-0,3	13,4
2,352	-2,3	14,0
2,3525	-5,4	13,8
2,353	-8,5	12,7
2,3535	-11,0	11,1
2,354	-12,6	9,7
2,3545	-13,4	8,7
2,355	-13,6	8,0
2,3555	-14,1	7,7
2,356	-15,2	7,3
2,3565	-17,0	6,8
2,357	-19,1	6,3
2,3575	-21,3	6,1
2,358	-23,6	6,4
2,3585	-25,6	7,5
2,359	-26,7	8,9
2,3595	-26,5	10,1
2,36	-25,4	10,6
2,3605	-24,1	10,2
2,361	-22,9	9,2
2,3615	-21,7	8,0
2,362	-20,4	6,9
2,3625	-19,3	6,2
2,363	-18,5	6,1
2,3635	-17,9	6,7
2,364	-17,3	7,7
2,3645	-16,7	8,6
2,365	-15,6	9,3
2,3655	-14,3	9,3
2,366	-12,9	8,7
2,3665	-11,6	7,8
2,367	-10,2	7,0
2,3675	-8,1	6,6
2,368	-5,4	6,4
2,3685	-2,1	6,5
2,369	2,2	6,9
2,3695	7,8	7,7
2,37	14,4	8,7
2,3705	21,2	9,8
2,371	27,1	11,1
2,3715	30,9	12,2
2,372	32,5	13,2
2,3725	31,6	13,9
2,373	28,5	14,5
2,3735	23,1	14,7
2,374	15,4	14,6
2,3745	5,8	14,4
2,375	-4,7	14,1
2,3755	-14,6	13,6
2,376	-22,6	13,2
2,3765	-28,5	12,7
2,377	-32,4	12,4
2,3775	-34,9	12,1
2,378	-36,3	11,8
2,3785	-36,7	11,3
2,379	-36,0	10,6
2,3795	-34,3	10,0
2,38	-31,5	9,8
2,3805	-27,8	9,8
2,381	-23,5	9,8
2,3815	-19,0	9,8
2,382	-14,8	9,5
2,3825	-10,8	8,9
2,383	-6,6	8,3
2,3835	-2,3	7,8
2,384	1,5	7,7
2,3845	3,8	8,0
2,385	4,3	8,6
2,3855	3,2	9,2
2,386	1,4	9,7
2,3865	-0,5	10,3
2,387	-2,3	10,9
2,3875	-3,9	11,1
2,388	-5,3	10,7
2,3885	-7,0	9,6
2,389	-9,8	8,5
2,3895	-14,2	7,5
2,39	-19,6	6,9
2,3905	-24,9	6,7
2,391	-29,3	7,0
2,3915	-32,7	7,9
2,392	-34,9	8,9
2,3925	-36,0	9,9
2,393	-36,1	10,7
2,3935	-35,0	11,0
2,394	-33,2	10,8
2,3945	-30,9	10,1
2,395	-28,3	9,0
2,3955	-25,4	8,0
2,396	-22,0	7,2
2,3965	-18,3	6,8
2,397	-14,7	6,6
2,3975	-11,7	6,8
2,398	-9,2	7,1
2,3985	-6,9	7,2
2,399	-4,5	6,7
2,3995	-2,2	5,7
2,4	-0,1	4,8
2,4005	1,3	4,3
2,401	2,5	4,4
2,4015	3,6	5,2
2,402	5,1	6,6
2,4025	6,8	8,4
2,403	8,0	10,6
2,4035	8,2	12,5
2,404	7,6	13,9
2,4045	6,6	14,6
2,405	5,8	14,7
2,4055	4,9	14,5
2,406	4,0	14,2
2,4065	3,4	13,8
2,407	3,9	13,7
2,4075	5,9	13,6
2,408	8,9	13,5
2,4085	12,3	13,4
2,409	15,7	13,2
2,4095	18,5	12,9
2,41	20,6	12,5
2,4105	21,7	11,7
2,411	21,6	10,3
2,4115	19,8	8,4
2,412	16,3	6,5
2,4125	11,0	5,2
2,413	4,8	5,1
2,4135	-1,6	6,0
2,414	-7,3	7,0
2,4145	-12,2	7,7
2,415	-16,1	8,3
2,4155	-19,1	9,0
2,416	-21,0	9,8
2,4165	-22,4	10,3
2,417	-23,5	9,9
2,4175	-24,2	9,0
2,418	-24,0	8,2
2,4185	-22,6	7,7
2,419	-20,3	7,7
2,4195	-17,8	7,8
2,42	-15,0	8,2
2,4205	-12,4	8,5
2,421	-10,3	8,8
2,4215	-9,1	8,9
2,422	-9,2	8,9
2,4225	-10,0	8,6
2,423	-11,3	8,1
2,4235	-12,4	7,4
2,424	-12,2	6,8
2,4245	-10,2	6,4
2,425	-6,4	6,3
2,4255	-1,7	6,5
2,426	3,1	7,0
2,4265	7,0	7,3
2,427	9,2	7,1
2,4275	9,3	6,8
2,428	7,6	6,6
2,4285	3,6	6,9
2,429	-2,5	7,4
2,4295	-10,1	8,3
2,43	-17,1	9,5
2,4305	-22,0	10,8
2,431	-24,3	12,0
2,4315	-24,4	12,7
2,432	-23,3	13,2
2,4325	-21,6	13,6
2,433	-20,1	13,9
2,4335	-19,3	14,0
2,434	-19,4	13,6
2,4345	-20,3	12,4
2,435	-21,4	10,6
2,4355	-22,0	8,5
2,436	-21,9	6,9
2,4365	-21,3	6,1
2,437	-20,5	6,3
2,4375	-19,2	7,1
2,438	-16,7	7,8
2,4385	-13,3	8,3
2,439	-9,8	8,2
2,4395	-7,3	7,9
2,44	-6,3	7,5
2,4405	-6,6	7,2
2,441	-8,0	7,1
2,4415	-10,2	7,3
2,442	-12,4	7,6
2,4425	-14,4	7,8
2,443	-15,6	7,8
2,4435	-16,3	7,4
2,444	-16,6	7,0
2,4445	-16,5	6,6
2,445	-16,1	6,3
2,4455	-15,5	6,2
2,446	-15,1	6,5
2,4465	-15,3	7,2
2,447	-15,7	8,0
2,4475	-15,9	8,9
2,448	-15,3	9,7
2,4485	-14,6	10,3
2,449	-14,7	10,8
2,4495	-15,9	11,0
2,45	-16,6	11,0
2,4505	-14,2	10,8
2,451	-7,6	10,5
2,4515	1,3	10,2
2,452	9,8	9,8
2,4525	15,7	9,6
2,453	18,6	9,9
2,4535	18,9	10,5
2,454	16,9	11,0
2,4545	13,4	10,9
2,455	9,0	10,4
2,4555	4,7	9,8
2,456	1,3	9,2
2,4565	-1,3	8,9
2,457	-3,7	9,2
2,4575	-6,6	9,8
2,458	-10,0	10,4
2,4585	-13,2	11,1
2,459	-15,4	11,5
2,4595	-16,3	11,7
2,46	-16,4	11,6
2,4605	-16,3	11,4
2,461	-15,9	10,9
2,4615	-14,5	10,2
2,462	-12,2	9,4
2,4625	-9,6	9,0
2,463	-7,8	8,8
2,4635	-6,9	8,8
2,464	-6,3	8,5
2,4645	-6,3	8,0
2,465	-6,7	7,4
2,4655	-7,1	6,7
2,466	-7,4	6,0
2,4665	-7,8	5,5
2,467	-8,6	5,5
2,4675	-9,6	6,4
2,468	-10,4	7,9
2,4685	-11,5	9,4
2,469	-12,9	10,5
2,4695	-14,5	11,1
2,47	-15,8	11,3
2,4705	-16,4	11,5
2,471	-16,7	11,5
2,4715	-17,1	11,2
2,472	-18,1	10,6
2,4725	-19,6	10,1
2,473	-21,3	9,8
2,4735	-22,8	9,8
2,474	-23,7	9,9
2,4745	-23,4	10,0
2,475	-22,0	10,0
2,4755	-19,6	9,8
2,476	-16,4	9,8
2,4765	-12,8	9,7
2,477	-9,0	9,4
2,4775	-5,5	8,9
2,478	-2,6	8,5
2,4785	-0,2	8,3
2,479	1,8	8,3
2,4795	3,0	8,9
2,48	3,5	9,8
2,4805	2,9	10,5
2,481	1,4	10,9
2,4815	-0,4	11,1
2,482	-1,6	11,3
2,4825	-1,9	11,8
2,483	-1,7	12,6
2,4835	-1,6	13,3
2,484	-2,0	13,6
2,4845	-3,2	13,4
2,485	-5,0	12,9
2,4855	-7,1	12,3
2,486	-9,3	11,9
2,4865	-11,8	11,9
2,487	-15,0	11,8
2,4875	-18,6	11,5
2,488	-22,1	10,7
2,4885	-24,5	9,5
2,489	-25,2	8,5
2,4895	-24,3	7,7
2,49	-21,7	7,3
2,4905	-17,8	7,3
2,491	-13,2	7,6
2,4915	-8,4	8,1
2,492	-4,1	8,6
2,4925	-0,7	8,8
2,493	1,2	8,8
2,4935	0,8	8,8
2,494	-1,8	9,0
2,4945	-5,8	9,3
2,495	-10,0	9,6
2,4955	-13,3	9,8
2,496	-15,8	10,1
2,4965	-17,9	10,5
2,497	-20,2	10,8
2,4975	-22,6	11,1
2,498	-24,4	11,2
2,4985	-25,3	11,2
2,499	-25,3	10,9
2,4995	-24,1	10,7
2,5	-21,6	10,4
2,5005	-17,9	9,8
2,501	-13,4	9,0
2,5015	-9,3	8,0
2,502	-6,0	7,1
2,5025	-4,0	6,2
2,503	-2,8	5,7
2,5035	-2,2	5,4
2,504	-1,8	5,7
2,5045	-1,6	6,3
2,505	-1,6	7,0
2,5055	-2,0	7,8
2,506	-3,0	8,8
2,5065	-4,8	10,0
2,507	-7,3	11,3
2,5075	-10,5	12,5
2,508	-14,3	13,2
2,5085	-18,7	13,5
2,509	-23,6	13,5
2,5095	-28,3	13,1
2,51	-31,8	12,6
2,5105	-33,2	12,3
2,511	-32,7	12,1
2,5115	-31,0	11,8
2,512	-28,5	11,3
2,5125	-25,3	10,6
2,513	-21,4	9,9
2,5135	-17,6	9,6
2,514	-14,3	9,5
2,5145	-11,8	9,6
2,515	-9,9	9,8
2,5155	-8,2	9,9
2,516	-6,7	10,0
2,5165	-5,8	9,8
2,517	-5,2	9,4
2,5175	-4,6	9,1
2,518	-3,8	8,9
2,5185	-2,8	9,1
2,519	-2,1	9,7
2,5195	-1,6	10,5
2,52	-1,4	11,4
2,5205	-1,4	12,2
2,521	-1,6	12,4
2,5215	-2,3	11,9
2,522	-3,8	11,0
2,5225	-5,8	10,1
2,523	-7,0	9,6
2,5235	-6,0	9,6
2,524	-2,6	9,9
2,5245	2,2	9,8
2,525	6,9	9,1
2,5255	10,3	7,8
2,526	12,0	6,3
2,5265	12,0	5,1
2,527	10,8	4,4
2,5275	8,7	4,2
2,528	5,5	4,1
2,5285	1,2	4,0
2,529	-4,1	4,2
2,5295	-9,4	4,6
2,53	-13,1	5,4
2,5305	-14,0	6,4
2,531	-12,3	7,4
2,5315	-9,7	8,3
2,532	-8,0	9,2
2,5325	-8,3	9,7
2,533	-10,0	9,8
2,5335	-11,9	9,5
2,534	-12,8	9,0
2,5345	-12,8	8,4
2,535	-12,7	8,1
2,5355	-13,3	8,0
2,536	-14,3	8,2
2,5365	-15,1	8,6
2,537	-15,4	8,8
2,5375	-15,4	8,8
2,538	-15,2	8,4
2,5385	-14,9	8,1
2,539	-14,4	7,9
2,5395	-13,7	7,5
2,54	-12,7	7,1
2,5405	-11,7	6,9
2,541	-10,3	7,0
2,5415	-8,2	7,6
2,542	-5,2	8,8
2,5425	-1,8	10,1
2,543	1,3	10,8
2,5435	3,4	10,5
2,544	4,3	9,4
2,5445	4,1	7,9
2,545	3,0	6,3
2,5455	1,3	5,1
2,546	-1,0	4,4
2,5465	-3,8	4,4
2,547	-6,6	4,9
2,5475	-9,2	5,8
2,548	-11,3	6,9
2,5485	-13,0	7,8
2,549	-14,5	8,0
2,5495	-16,2	7,5
2,55	-18,6	6,4
2,5505	-21,4	5,1
2,551	-24,6	3,9
2,5515	-27,7	3,3
2,552	-30,6	3,2
2,5525	-32,8	3,3
2,553	-34,0	3,6
2,5535	-34,2	4,2
2,554	-33,3	4,9
2,5545	-31,8	5,4
2,555	-30,1	5,3
2,5555	-28,1	4,8
2,556	-25,5	4,2
2,5565	-21,8	3,7
2,557	-16,9	3,5
2,5575	-10,7	3,4
2,558	-4,1	3,3
2,5585	1,5	3,0
2,559	5,1	2,7
2,5595	6,6	2,5
2,56	6,0	2,6
2,5605	4,1	2,9
2,561	1,1	3,5
2,5615	-2,4	3,9
2,562	-5,6	4,1
2,5625	-8,1	4,3
2,563	-9,9	4,6
2,5635	-11,7	4,8
2,564	-13,7	4,7
2,5645	-15,5	4,3
2,565	-16,6	4,0
2,5655	-17,5	4,0
2,566	-18,7	3,9
2,5665	-20,3	3,4
2,567	-21,6	2,4
2,5675	-22,0	1,0
2,568	-21,2	-0,4
2,5685	-19,3	-1,5
2,569	-16,8	-2,3
2,5695	-14,3	-2,7
2,57	-12,5	-2,6
2,5705	-11,7	-2,1
2,571	-11,5	-1,4
2,5715	-12,0	-1,1
2,572	-13,5	-1,1
2,5725	-16,3	-1,6
2,573	-20,0	-2,1
2,5735	-23,1	-2,3
2,574	-24,3	-2,0
2,5745	-23,8	-1,0
2,575	-23,0	0,5
2,5755	-23,6	2,3
2,576	-25,6	3,8
2,5765	-28,3	5,0
2,577	-30,3	5,6
2,5775	-30,6	5,7
2,578	-28,8	5,3
2,5785	-25,4	4,7
2,579	-21,6	3,8
2,5795	-18,6	3,1
2,58	-16,8	3,0
2,5805	-16,4	3,3
2,581	-17,0	3,6
2,5815	-18,4	3,7
2,582	-20,2	3,6
2,5825	-22,0	3,4
2,583	-23,4	3,3
2,5835	-24,8	3,5
2,584	-26,8	4,0
2,5845	-30,3	4,7
2,585	-34,4	5,3
2,5855	-37,5	5,5
2,586	-38,1	5,3
2,5865	-35,9	4,9
2,587	-32,0	4,7
2,5875	-27,2	4,8
2,588	-21,9	5,0
2,5885	-17,0	5,2
2,589	-13,1	5,2
2,5895	-10,7	4,9
2,59	-10,2	4,3
2,5905	-11,4	3,6
2,591	-13,8	3,2
2,5915	-16,6	3,3
2,592	-18,9	4,0
2,5925	-20,9	5,0
2,593	-22,7	6,0
2,5935	-23,7	6,7
2,594	-23,8	6,9
2,5945	-23,2	6,3
2,595	-22,1	5,1
2,5955	-20,4	3,8
2,596	-17,9	3,1
2,5965	-14,5	3,3
2,597	-10,8	4,1
2,5975	-7,7	4,9
2,598	-5,6	5,4
2,5985	-4,4	5,7
2,599	-3,7	5,7
2,5995	-3,5	5,5
2,6	-4,1	5,1
2,6005	-5,6	4,8
2,601	-7,2	4,7
2,6015	-7,7	5,0
2,602	-6,4	5,8
2,6025	-3,8	6,8
2,603	-1,0	7,9
2,6035	0,8	8,6
2,604	1,2	8,6
2,6045	0,1	7,8
2,605	-2,1	6,6
2,6055	-5,5	5,4
2,606	-10,4	4,8
2,6065	-16,7	4,8
2,607	-23,2	5,5
2,6075	-28,5	6,4
2,608	-32,1	7,1
2,6085	-34,1	7,4
2,609	-34,8	7,3
2,6095	-34,0	6,9
2,61	-31,3	6,4
2,6105	-26,9	6,2
2,611	-21,5	6,2
2,6115	-15,7	6,3
2,612	-10,1	6,4
2,6125	-4,8	6,7
2,613	0,7	7,2
2,6135	6,5	7,7
2,614	12,4	8,1
2,6145	17,8	8,3
2,615	21,9	8,4
2,6155	23,8	8,7
2,616	22,9	8,8
2,6165	18,6	8,8
2,617	11,5	8,3
2,6175	2,8	7,6
2,618	-6,3	7,2
2,6185	-15,2	7,2
2,619	-23,1	7,4
2,6195	-29,8	7,9
2,62	-35,1	8,4
2,6205	-39,0	9,0
2,621	-41,3	9,2
2,6215	-41,3	9,0
2,622	-39,2	8,3
2,6225	-35,5	7,5
2,623	-31,5	6,6
2,6235	-28,6	5,7
2,624	-27,5	4,8
2,6245	-28,3	4,2
2,625	-30,5	4,1
2,6255	-33,1	4,6
2,626	-35,4	5,7
2,6265	-37,4	6,8
2,627	-39,3	7,5
2,6275	-40,9	7,7
2,628	-41,8	7,3
2,6285	-41,1	6,7
2,629	-38,7	6,1
2,6295	-35,4	6,0
2,63	-31,9	6,2
2,6305	-28,4	6,8
2,631	-24,6	7,6
2,6315	-21,4	8,7
2,632	-19,4	9,8
2,6325	-18,4	10,3
2,633	-17,3	10,3
2,6335	-15,4	9,8
2,634	-12,9	9,1
2,6345	-10,7	7,9
2,635	-9,3	6,4
2,6355	-8,8	4,8
2,636	-9,3	3,2
2,6365	-10,8	2,1
2,637	-12,9	1,5
2,6375	-15,1	1,3
2,638	-16,6	1,2
2,6385	-17,4	1,1
2,639	-17,9	1,3
2,6395	-18,0	2,2
2,64	-17,7	3,6
2,6405	-17,1	5,3
2,641	-16,5	7,0
2,6415	-16,4	8,4
2,642	-16,9	9,3
2,6425	-18,1	9,5
2,643	-19,6	8,8
2,6435	-20,8	7,4
2,644	-21,3	5,8
2,6445	-21,0	4,5
2,645	-19,9	3,8
2,6455	-18,5	3,4
2,646	-17,6	3,3
2,6465	-17,5	3,4
2,647	-18,4	3,9
2,6475	-19,8	4,6
2,648	-21,2	5,1
2,6485	-22,2	5,2
2,649	-22,1	4,9
2,6495	-19,5	4,2
2,65	-12,9	3,2
2,6505	-2,8	2,0
2,651	8,6	1,2
2,6515	18,8	0,9
2,652	26,6	1,4
2,6525	30,9	2,5
2,653	31,6	3,7
2,6535	28,9	4,6
2,654	23,7	4,9
2,6545	16,8	4,6
2,655	8,6	3,9
2,6555	-0,7	3,4
2,656	-10,5	3,3
2,6565	-20,0	3,8
2,657	-28,2	4,8
2,6575	-34,8	6,4
2,658	-39,6	8,4
2,6585	-43,0	10,6
2,659	-44,8	12,3
2,6595	-45,2	13,5
2,66	-44,1	13,9
2,6605	-42,3	13,4
2,661	-40,3	12,0
2,6615	-38,1	9,6
2,662	-35,8	6,8
2,6625	-33,6	4,5
2,663	-31,8	3,1
2,6635	-30,5	2,6
2,664	-29,4	2,8
2,6645	-28,1	3,2
2,665	-26,4	3,6
2,6655	-24,8	3,9
2,666	-23,7	3,8
2,6665	-23,4	3,7
2,667	-23,8	3,5
2,6675	-24,6	3,5
2,668	-25,5	3,8
2,6685	-26,2	4,4
2,669	-26,2	5,3
2,6695	-25,2	6,1
2,67	-22,6	6,4
2,6705	-18,2	6,2
2,671	-12,6	5,7
2,6715	-7,1	4,9
2,672	-2,8	4,1
2,6725	-0,1	3,5
2,673	1,4	3,0
2,6735	3,0	2,9
2,674	6,4	3,0
2,6745	11,9	3,4
2,675	18,7	3,9
2,6755	25,4	4,3
2,676	31,3	4,3
2,6765	35,5	4,2
2,677	37,4	4,1
2,6775	36,3	3,8
2,678	32,2	3,4
2,6785	26,0	2,9
2,679	18,7	2,7
2,6795	11,0	2,9
2,68	3,0	3,5
2,6805	-5,2	4,2
2,681	-13,1	4,7
2,6815	-20,0	4,9
2,682	-25,1	4,7
2,6825	-28,5	4,2
2,683	-30,9	3,4
2,6835	-32,9	2,6
2,684	-34,2	2,0
2,6845	-34,4	1,8
2,685	-33,5	1,8
2,6855	-31,4	1,8
2,686	-28,4	1,8
2,6865	-25,2	1,9
2,687	-21,5	2,3
2,6875	-17,0	2,7
2,688	-11,3	2,8
2,6885	-4,7	2,9
2,689	1,6	2,8
2,6895	6,1	2,9
2,69	8,2	3,1
2,6905	7,7	3,5
2,691	5,4	4,0
2,6915	2,3	4,6
2,692	-1,0	5,2
2,6925	-3,9	5,8
2,693	-5,9	6,1
2,6935	-7,1	5,9
2,694	-7,4	5,5
2,6945	-7,0	5,1
2,695	-6,0	4,9
2,6955	-5,2	5,0
2,696	-5,5	5,7
2,6965	-7,3	6,7
2,697	-10,3	7,4
2,6975	-13,8	7,5
2,698	-17,6	7,0
2,6985	-21,3	6,2
2,699	-24,6	5,1
2,6995	-27,0	4,0
2,7	-28,2	3,1
2,7005	-28,3	2,7
2,701	-27,6	2,7
2,7015	-26,4	3,2
2,702	-24,7	4,0
2,7025	-22,4	5,4
2,703	-19,9	6,9
2,7035	-17,4	8,4
2,704	-14,6	9,3
2,7045	-11,2	9,3
2,705	-6,8	8,6
2,7055	-2,1	7,4
2,706	2,9	6,2
2,7065	8,2	5,1
2,707	14,1	4,3
2,7075	20,0	3,9
2,708	24,4	3,8
2,7085	26,6	3,7
2,709	26,6	3,5
2,7095	25,1	3,3
2,71	22,2	3,1
2,7105	17,8	2,8
2,711	11,7	2,5
2,7115	4,2	2,0
2,712	-4,3	1,6
2,7125	-13,2	1,5
2,713	-22,3	1,9
2,7135	-30,8	2,4
2,714	-38,1	3,1
2,7145	-43,5	3,8
2,715	-46,6	4,4
2,7155	-47,6	4,7
2,716	-46,8	4,6
2,7165	-44,9	4,2
2,717	-42,1	3,6
2,7175	-38,8	2,9
2,718	-35,6	2,3
2,7185	-32,8	1,9
2,719	-30,3	1,9
2,7195	-28,2	2,2
2,72	-26,0	2,8
2,7205	-23,6	3,6
2,721	-20,5	4,4
2,7215	-17,1	4,8
2,722	-13,7	4,9
2,7225	-10,6	4,7
2,723	-7,8	4,4
2,7235	-5,6	4,2
2,724	-3,7	4,3
2,7245	-1,8	4,5
2,725	0,8	5,0
2,7255	4,5	5,9
2,726	9,4	7,1
2,7265	15,3	8,3
2,727	21,8	8,9
2,7275	28,0	8,8
2,728	32,9	7,7
2,7285	36,1	5,9
2,729	37,6	3,9
2,7295	37,4	2,6
2,73	35,8	2,2
2,7305	32,7	2,8
2,731	28,2	4,1
2,7315	22,1	5,4
2,732	15,2	6,4
2,7325	8,4	6,8
2,733	2,6	6,8
2,7335	-1,8	6,5
2,734	-5,1	6,4
2,7345	-7,9	6,8
2,735	-10,5	7,8
2,7355	-13,0	8,8
2,736	-15,6	9,3
2,7365	-18,5	9,1
2,737	-21,9	7,9
2,7375	-25,0	6,4
2,738	-27,0	5,3
2,7385	-27,7	4,4
2,739	-27,5	3,8
2,7395	-27,4	3,3
2,74	-27,7	3,3
2,7405	-28,5	3,7
2,741	-29,9	4,6
2,7415	-32,1	5,7
2,742	-34,4	6,6
2,7425	-35,5	7,2
2,743	-34,3	7,3
2,7435	-30,6	7,0
2,744	-25,5	6,7
2,7445	-20,5	6,5
2,745	-16,9	6,3
2,7455	-15,1	6,1
2,746	-15,7	5,8
2,7465	-18,8	5,4
2,747	-24,8	5,2
2,7475	-33,0	4,9
2,748	-41,0	4,7
2,7485	-46,4	4,3
2,749	-47,7	3,8
2,7495	-45,4	3,4
2,75	-41,6	3,2
2,7505	-38,3	2,9
2,751	-37,0	2,4
2,7515	-37,2	1,9
2,752	-37,8	1,6
2,7525	-37,9	2,0
2,753	-36,3	3,0
2,7535	-32,6	4,3
2,754	-26,8	5,3
2,7545	-20,1	5,8
2,755	-14,1	5,7
2,7555	-9,7	5,2
2,756	-7,0	4,8
2,7565	-5,9	4,7
2,757	-6,1	5,0
2,7575	-7,1	5,4
2,758	-7,5	5,8
2,7585	-6,5	6,0
2,759	-3,9	5,9
2,7595	-0,3	5,5
2,76	3,3	5,0
2,7605	6,5	4,7
2,761	9,4	4,5
2,7615	12,3	4,1
2,762	15,3	3,5
2,7625	17,9	2,8
2,763	19,8	2,4
2,7635	20,8	2,4
2,764	20,8	2,7
2,7645	19,7	3,1
2,765	17,5	3,3
2,7655	14,8	3,2
2,766	12,3	2,6
2,7665	10,7	1,7
2,767	9,6	0,7
2,7675	8,5	-0,1
2,768	6,9	-0,5
2,7685	5,0	-0,5
2,769	3,2	-0,0
2,7695	1,1	0,9
2,77	-1,4	2,0
2,7705	-4,0	2,8
2,771	-6,2	3,0
2,7715	-7,5	2,4
2,772	-8,0	1,4
2,7725	-8,5	0,6
2,773	-9,4	0,1
2,7735	-11,0	0,0
2,774	-12,7	0,2
2,7745	-13,6	0,4
2,775	-13,3	0,8
2,7755	-12,2	1,2
2,776	-11,2	1,7
2,7765	-10,8	2,0
2,777	-11,3	2,2
2,7775	-12,2	2,3
2,778	-13,1	2,3
2,7785	-13,9	2,2
2,779	-14,7	1,9
2,7795	-16,1	1,8
2,78	-18,4	1,8
2,7805	-21,2	2,0
2,781	-23,8	2,3
2,7815	-25,4	2,7
2,782	-25,3	3,2
2,7825	-23,5	3,3
2,783	-20,7	2,9
2,7835	-17,0	2,2
2,784	-12,5	1,5
2,7845	-7,1	1,2
2,785	-1,5	1,3
2,7855	3,6	1,8
2,786	8,1	2,7
2,7865	12,0	3,8
2,787	15,3	4,9
2,7875	17,6	5,5
2,788	18,3	5,6
2,7885	17,6	5,1
2,789	15,7	4,6
2,7895	13,1	4,2
2,79	9,8	4,0
2,7905	6,4	4,0
2,791	3,8	4,1
2,7915	2,8	4,2
2,792	3,1	4,1
2,7925	4,3	4,1
2,793	5,8	4,3
2,7935	6,7	4,5
2,794	6,6	5,0
2,7945	5,8	5,6
2,795	4,9	6,2
2,7955	4,1	6,3
2,796	2,4	5,9
2,7965	-1,1	5,0
2,797	-6,3	3,8
2,7975	-12,3	2,5
2,798	-17,8	1,4
2,7985	-21,9	0,7
2,799	-24,1	0,2
2,7995	-24,4	-0,2
2,8	-23,3	-0,7
2,8005	-21,3	-1,2
2,801	-18,9	-1,1
2,8015	-16,3	-0,3
2,802	-13,3	1,3
2,8025	-10,6	3,4
2,803	-9,3	5,4
2,8035	-10,1	7,0
2,804	-12,3	7,7
2,8045	-14,8	7,3
2,805	-16,8	5,9
2,8055	-18,3	4,3
2,806	-19,4	3,0
2,8065	-20,3	2,6
2,807	-21,2	2,9
2,8075	-21,8	3,8
2,808	-21,9	4,8
2,8085	-21,4	5,6
2,809	-20,5	6,1
2,8095	-19,2	6,4
2,81	-17,6	6,7
2,8105	-15,9	7,0
2,811	-14,4	7,5
2,8115	-13,3	8,1
2,812	-12,4	8,8
2,8125	-11,9	9,5
2,813	-11,6	9,9
2,8135	-11,4	10,2
2,814	-11,6	10,1
2,8145	-12,2	9,8
2,815	-13,1	9,1
2,8155	-13,6	8,0
2,816	-13,5	6,6
2,8165	-13,0	5,0
2,817	-12,9	3,4
2,8175	-13,6	2,2
2,818	-14,7	1,5
2,8185	-15,6	1,4
2,819	-15,6	1,9
2,8195	-15,1	2,8
2,82	-14,4	3,8
2,8205	-13,8	4,5
2,821	-12,9	4,8
2,8215	-11,3	4,7
2,822	-8,3	4,3
2,8225	-4,1	3,7
2,823	1,2	3,0
2,8235	6,8	2,4
2,824	11,7	2,2
2,8245	15,1	2,3
2,825	16,7	2,7
2,8255	16,8	2,9
2,826	15,3	2,9
2,8265	12,1	2,8
2,827	7,2	2,5
2,8275	1,1	2,3
2,828	-5,6	2,0
2,8285	-11,9	1,7
2,829	-17,3	1,3
2,8295	-20,9	0,9
2,83	-22,5	1,0
2,8305	-22,9	1,5
2,831	-23,0	2,4
2,8315	-23,4	3,3
2,832	-23,7	3,9
2,8325	-22,7	4,3
2,833	-20,1	4,3
2,8335	-16,4	4,2
2,834	-12,5	4,1
2,8345	-9,0	4,0
2,835	-5,8	4,0
2,8355	-2,5	3,9
2,836	1,6	4,1
2,8365	6,9	4,8
2,837	13,3	5,9
2,8375	20,1	7,0
2,838	26,0	7,8
2,8385	30,7	8,2
2,839	34,0	8,1
2,8395	35,9	7,8
2,84	36,2	7,8
2,8405	35,1	8,0
2,841	33,3	8,6
2,8415	32,0	9,1
2,842	31,3	9,4
2,8425	31,1	9,5
2,843	30,1	9,8
2,8435	27,1	10,3
2,844	21,8	10,9
2,8445	14,4	11,2
2,845	6,1	10,8
2,8455	-2,8	9,7
2,846	-12,5	8,0
2,8465	-22,3	6,1
2,847	-31,1	4,3
2,8475	-36,6	3,2
2,848	-37,3	2,5
2,8485	-34,1	2,2
2,849	-28,7	2,1
2,8495	-22,5	1,9
2,85	-16,1	1,8
2,8505	-9,6	1,7
2,851	-3,9	1,6
2,8515	-0,1	1,7
2,852	1,3	2,0
2,8525	-0,2	2,7
2,853	-4,1	3,4
2,8535	-9,6	4,0
2,854	-15,2	4,4
2,8545	-19,4	4,6
2,855	-21,9	4,7
2,8555	-23,0	4,8
2,856	-22,9	5,2
2,8565	-21,8	5,7
2,857	-19,8	6,3
2,8575	-17,9	6,5
2,858	-16,5	6,1
2,8585	-15,5	5,0
2,859	-14,4	3,5
2,8595	-12,4	2,0
2,86	-9,4	0,7
2,8605	-5,7	-0,2
2,861	-2,4	-0,6
2,8615	-0,1	-0,6
2,862	0,9	-0,5
2,8625	1,0	-0,1
2,863	0,5	0,4
2,8635	-0,3	1,1
2,864	-1,0	1,8
2,8645	-1,6	2,3
2,865	-2,1	2,9
2,8655	-2,7	3,5
2,866	-3,6	3,8
2,8665	-5,1	3,8
2,867	-7,2	3,7
2,8675	-10,0	3,5
2,868	-13,1	3,1
2,8685	-15,8	2,5
2,869	-17,8	1,8
2,8695	-18,8	1,2
2,87	-18,8	0,8
2,8705	-17,3	1,3
2,871	-14,3	2,4
2,8715	-10,5	3,5
2,872	-6,8	4,1
2,8725	-4,3	4,3
2,873	-3,2	4,2
2,8735	-3,3	4,1
2,874	-3,9	4,0
2,8745	-4,4	4,1
2,875	-4,9	4,3
2,8755	-6,0	4,4
2,876	-8,3	4,4
2,8765	-11,6	4,5
2,877	-15,4	4,8
2,8775	-18,8	5,0
2,878	-21,3	4,9
2,8785	-23,0	4,3
2,879	-23,4	3,6
2,8795	-21,8	3,0
2,88	-17,7	3,0
2,8805	-11,9	3,3
2,881	-6,1	3,5
2,8815	-1,6	3,5
2,882	1,2	3,5
2,8825	1,8	3,5
2,883	0,2	3,6
2,8835	-3,7	3,7
2,884	-9,5	3,6
2,8845	-16,9	3,6
2,885	-25,2	3,7
2,8855	-33,3	3,9
2,886	-39,4	4,3
2,8865	-42,4	4,6
2,887	-41,7	5,0
2,8875	-37,5	5,3
2,888	-30,4	5,3
2,8885	-21,6	5,0
2,889	-11,9	4,6
2,8895	-2,0	4,2
2,89	7,5	3,7
2,8905	16,1	3,2
2,891	23,1	3,0
2,8915	28,3	3,1
2,892	31,7	3,7
2,8925	33,2	4,4
2,893	32,6	5,1
2,8935	29,9	5,5
2,894	25,6	5,5
2,8945	20,8	5,0
2,895	16,1	4,2
2,8955	12,8	3,5
2,896	12,3	3,2
2,8965	15,2	3,1
2,897	21,1	3,2
2,8975	27,8	3,3
2,898	33,3	3,6
2,8985	37,0	3,9
2,899	39,3	4,0
2,8995	40,7	3,8
2,9	40,6	3,7
2,9005	38,4	3,6
2,901	34,3	3,6
2,9015	28,9	3,7
2,902	23,1	3,8
2,9025	17,6	3,9
2,903	12,6	4,2
2,9035	8,3	4,8
2,904	4,3	5,5
2,9045	0,2	6,0
2,905	-4,0	6,1
2,9055	-8,3	5,8
2,906	-12,1	5,3
2,9065	-15,4	4,7
2,907	-17,8	4,4
2,9075	-19,3	4,6
2,908	-20,9	5,0
2,9085	-22,9	5,6
2,909	-25,0	6,4
2,9095	-26,2	7,3
2,91	-26,2	8,0
2,9105	-25,5	8,2
2,911	-25,2	7,8
2,9115	-25,2	6,8
2,912	-24,1	5,6
2,9125	-20,5	4,4
2,913	-14,5	3,7
2,9135	-7,9	3,4
2,914	-2,5	3,5
2,9145	0,8	3,8
2,915	2,5	4,0
2,9155	3,2	4,2
2,916	3,2	4,3
2,9165	2,8	4,4
2,917	2,9	4,4
2,9175	3,8	4,4
2,918	5,6	4,5
2,9185	7,6	4,8
2,919	9,1	5,3
2,9195	10,0	5,9
2,92	10,6	6,6
2,9205	11,2	7,2
2,921	11,9	7,4
2,9215	12,4	7,2
2,922	12,6	6,8
2,9225	12,4	6,5
2,923	12,0	6,5
2,9235	11,7	6,8
2,924	11,4	7,0
2,9245	11,0	7,4
2,925	10,3	8,0
2,9255	9,4	8,7
2,926	8,3	9,2
2,9265	7,1	8,9
2,927	5,6	8,0
2,9275	3,5	6,7
2,928	0,8	5,4
2,9285	-2,5	4,4
2,929	-5,9	4,1
2,9295	-8,9	4,7
2,93	-11,6	5,9
2,9305	-14,1	6,9
2,931	-16,6	7,5
2,9315	-18,3	7,6
2,932	-18,2	7,4
2,9325	-16,5	7,6
2,933	-14,0	7,9
2,9335	-11,9	8,1
2,934	-10,8	7,7
2,9345	-10,8	6,8
2,935	-11,9	5,9
2,9355	-13,7	5,2
2,936	-15,9	4,7
2,9365	-18,3	4,7
2,937	-20,3	5,2
2,9375	-21,4	6,1
2,938	-21,3	7,1
2,9385	-19,9	8,0
2,939	-17,7	8,8
2,9395	-15,2	9,5
2,94	-12,7	9,9
2,9405	-10,0	9,9
2,941	-7,0	9,5
2,9415	-4,0	8,8
2,942	-1,2	8,0
2,9425	1,1	7,5
2,943	2,9	7,1
2,9435	4,2	6,8
2,944	4,7	6,6
2,9445	4,8	6,6
2,945	5,0	6,6
2,9455	5,5	6,5
2,946	5,3	6,5
2,9465	4,1	6,8
2,947	2,1	7,0
2,9475	0,5	7,0
2,948	0,3	6,7
2,9485	2,0	6,0
2,949	5,3	4,9
2,9495	9,3	3,5
2,95	13,4	1,9
2,9505	16,8	0,5
2,951	19,0	-0,3
2,9515	19,4	-0,3
2,952	17,8	0,7
2,9525	14,2	2,6
2,953	8,6	5,1
2,9535	1,4	7,9
2,954	-6,3	10,7
2,9545	-13,5	12,9
2,955	-19,2	14,1
2,9555	-22,8	14,0
2,956	-24,4	13,0
2,9565	-24,7	11,8
2,957	-24,4	10,5
2,9575	-24,2	9,5
2,958	-24,6	9,1
2,9585	-25,8	9,0
2,959	-27,4	9,3
2,9595	-28,4	9,6
2,96	-27,8	9,5
2,9605	-25,6	8,7
2,961	-22,4	7,2
2,9615	-18,9	5,4
2,962	-15,6	3,8
2,9625	-12,8	2,9
2,963	-10,7	2,8
2,9635	-9,3	3,3
2,964	-8,4	3,9
2,9645	-7,7	4,5
2,965	-7,0	5,0
2,9655	-6,2	5,4
2,966	-5,5	5,8
2,9665	-4,9	6,0
2,967	-4,5	6,1
2,9675	-3,9	6,3
2,968	-2,5	6,2
2,9685	0,1	6,1
2,969	3,7	6,2
2,9695	7,0	6,4
2,97	9,0	6,9
2,9705	9,6	7,5
2,971	9,2	7,8
2,9715	8,5	7,7
2,972	8,2	7,4
2,9725	8,8	7,3
2,973	10,2	7,5
2,9735	11,3	7,8
2,974	11,1	8,3
2,9745	9,1	8,5
2,975	5,8	8,5
2,9755	2,0	8,3
2,976	-1,0	8,0
2,9765	-2,4	7,8
2,977	-2,3	7,4
2,9775	-1,3	7,1
2,978	-0,4	6,8
2,9785	-0,1	6,6
2,979	-0,8	6,6
2,9795	-2,3	6,6
2,98	-4,3	6,7
2,9805	-6,3	7,0
2,981	-7,1	7,5
2,9815	-6,1	7,9
2,982	-3,6	7,9
2,9825	-0,3	7,3
2,983	2,7	6,2
2,9835	5,1	4,8
2,984	6,9	3,6
2,9845	7,8	2,6
2,985	8,0	2,1
2,9855	8,0	2,3
2,986	8,3	2,9
2,9865	8,8	3,8
2,987	8,8	4,7
2,9875	8,1	5,6
2,988	6,7	6,4
2,9885	5,1	6,9
2,989	3,7	7,1
2,9895	2,1	7,2
2,99	0,4	7,6
2,9905	-1,3	8,6
2,991	-3,2	9,8
2,9915	-5,1	10,9
2,992	-7,2	11,4
2,9925	-9,7	11,2
2,993	-12,1	10,7
2,9935	-13,7	10,0
2,994	-14,1	9,5
2,9945	-13,2	9,2
2,995	-11,3	8,6
2,9955	-8,9	7,5
2,996	-6,4	6,3
2,9965	-4,3	5,4
2,997	-2,5	5,1
2,9975	-1,0	5,3
2,998	0,0	5,8
2,9985	0,3	6,2
2,999	-0,2	6,6
2,9995	-1,0	7,0
3	-1,4	7,8
3,0005	-1,5	8,4
3,001	-1,8	8,8
3,0015	-2,7	8,7
3,002	-4,3	8,2
3,0025	-5,8	7,4
3,003	-6,8	6,6
3,0035	-7,2	6,2
3,004	-6,6	6,5
3,0045	-4,4	7,2
3,005	-1,1	7,9
3,0055	2,4	8,3
3,006	4,9	8,1
3,0065	6,3	7,7
3,007	6,9	7,3
3,0075	7,3	7,1
3,008	7,0	7,3
3,0085	5,6	7,6
3,009	2,8	7,7
3,0095	-0,5	7,4
3,01	-3,2	6,8
3,0105	-4,6	6,3
3,011	-5,1	5,8
3,0115	-5,4	5,4
3,012	-5,9	5,1
3,0125	-6,8	4,8
3,013	-7,8	4,7
3,0135	-8,8	4,7
3,014	-9,3	5,1
3,0145	-8,5	5,9
3,015	-6,3	6,9
3,0155	-3,3	7,7
3,016	-0,2	7,9
3,0165	2,3	7,9
3,017	4,0	7,6
3,0175	5,2	7,0
3,018	6,5	6,3
3,0185	8,2	6,1
3,019	10,2	6,3
3,0195	11,5	6,7
3,02	11,5	7,1
3,0205	10,4	7,6
3,021	8,7	7,9
3,0215	6,8	8,0
3,022	4,6	8,0
3,0225	1,6	7,9
3,023	-1,9	7,8
3,0235	-5,5	7,6
3,024	-8,8	7,5
3,0245	-11,8	7,8
3,025	-14,3	8,3
3,0255	-16,6	9,1
3,026	-17,7	9,8
3,0265	-17,0	10,4
3,027	-14,2	10,8
3,0275	-9,9	11,0
3,028	-4,9	10,9
3,0285	0,3	10,7
3,029	5,3	10,1
3,0295	9,3	9,4
3,03	11,8	8,9
3,0305	12,5	8,8
3,031	11,5	9,0
3,0315	9,5	9,3
3,032	7,2	9,4
3,0325	4,9	9,1
3,033	2,1	8,3
3,0335	-1,6	7,3
3,034	-6,4	6,4
3,0345	-11,2	5,7
3,035	-14,3	5,3
3,0355	-14,0	5,1
3,036	-10,3	5,6
3,0365	-4,4	6,7
3,037	2,1	8,4
3,0375	8,2	9,9
3,038	12,6	10,6
3,0385	14,7	10,5
3,039	14,3	9,7
3,0395	12,2	8,7
3,04	8,6	7,7
3,0405	3,8	7,3
3,041	-2,0	7,6
3,0415	-8,2	8,3
3,042	-13,7	9,0
3,0425	-16,7	9,5
3,043	-16,4	9,7
3,0435	-13,4	9,6
3,044	-9,3	9,2
3,0445	-4,5	8,8
3,045	2,2	8,8
3,0455	12,3	9,0
3,046	25,4	9,3
3,0465	38,9	9,4
3,047	49,6	9,5
3,0475	55,2	9,8
3,048	54,9	10,2
3,0485	49,6	10,7
3,049	40,8	11,1
3,0495	29,5	11,4
3,05	16,5	11,8
3,0505	2,6	11,9
3,051	-10,4	11,9
3,0515	-20,7	12,1
3,052	-28,1	12,5
3,0525	-34,1	13,2
3,053	-40,2	13,8
3,0535	-46,7	14,0
3,054	-52,4	13,7
3,0545	-56,3	12,8
3,055	-57,8	11,5
3,0555	-56,4	10,1
3,056	-52,1	8,5
3,0565	-44,9	6,9
3,057	-35,8	5,5
3,0575	-26,1	4,3
3,058	-17,5	3,5
3,0585	-10,8	3,5
3,059	-6,4	4,3
3,0595	-3,8	5,5
3,06	-2,4	6,6
3,0605	-1,4	7,5
3,061	-0,6	8,2
3,0615	0,1	8,6
3,062	0,8	8,7
3,0625	1,5	8,6
3,063	2,5	8,3
3,0635	3,8	8,2
3,064	5,5	8,1
3,0645	7,3	7,9
3,065	8,8	7,7
3,0655	10,0	7,5
3,066	10,8	7,3
3,0665	10,9	7,1
3,067	10,3	6,9
3,0675	8,8	7,1
3,068	6,4	7,9
3,0685	3,4	9,3
3,069	-0,2	10,4
3,0695	-4,2	10,7
3,07	-8,3	10,2
3,0705	-12,2	9,2
3,071	-14,4	7,9
3,0715	-14,1	6,6
3,072	-11,3	5,6
3,0725	-7,8	5,1
3,073	-5,1	5,3
3,0735	-4,1	6,0
3,074	-4,8	6,9
3,0745	-6,6	7,8
3,075	-8,6	8,7
3,0755	-10,4	9,3
3,076	-11,6	9,5
3,0765	-12,1	9,2
3,077	-12,1	8,6
3,0775	-11,7	8,0
3,078	-11,3	7,5
3,0785	-11,3	7,2
3,079	-11,8	7,1
3,0795	-12,4	7,4
3,08	-12,8	8,0
3,0805	-12,3	8,7
3,081	-11,1	9,0
3,0815	-9,5	8,9
3,082	-7,7	8,3
3,0825	-5,8	7,5
3,083	-3,7	6,7
3,0835	-1,6	6,1
3,084	-0,3	5,7
3,0845	-0,3	5,3
3,085	-1,3	5,1
3,0855	-2,9	5,0
3,086	-4,5	5,5
3,0865	-5,8	6,3
3,087	-6,6	7,4
3,0875	-6,6	8,3
3,088	-5,1	8,5
3,0885	-1,8	8,3
3,089	2,6	7,8
3,0895	7,5	7,4
3,09	12,1	7,1
3,0905	16,0	6,9
3,091	19,1	6,5
3,0915	21,0	6,0
3,092	21,7	5,7
3,0925	21,2	5,6
3,093	20,0	5,7
3,0935	18,3	5,8
3,094	15,8	5,5
3,0945	12,9	4,9
3,095	9,9	4,2
3,0955	6,9	3,8
3,096	3,6	4,2
3,0965	-0,6	5,3
3,097	-5,1	7,0
3,0975	-9,0	8,6
3,098	-12,3	9,8
3,0985	-15,4	10,3
3,099	-18,8	10,4
3,0995	-21,6	10,1
3,1	-22,6	9,3
3,1005	-21,1	8,3
3,101	-17,5	7,3
3,1015	-12,5	6,5
3,102	-7,0	6,4
3,1025	-2,3	7,2
3,103	0,5	8,5
3,1035	1,3	10,2
3,104	0,5	11,8
3,1045	-1,2	12,8
3,105	-3,4	13,1
3,1055	-6,2	12,7
3,106	-9,0	11,8
3,1065	-11,5	10,7
3,107	-13,3	9,9
3,1075	-14,0	9,6
3,108	-13,3	9,4
3,1085	-11,0	8,9
3,109	-7,7	7,8
3,1095	-4,2	6,3
3,11	-1,2	4,8
3,1105	1,2	4,0
3,111	2,4	3,7
3,1115	2,2	3,4
3,112	0,2	3,1
3,1125	-3,7	3,2
3,113	-8,6	4,0
3,1135	-13,4	5,4
3,114	-17,5	7,0
3,1145	-21,0	8,0
3,115	-23,8	8,5
3,1155	-25,7	8,7
3,116	-26,2	8,6
3,1165	-25,4	8,1
3,117	-23,9	7,5
3,1175	-22,0	7,1
3,118	-20,1	7,0
3,1185	-17,8	7,3
3,119	-14,8	7,7
3,1195	-11,2	8,0
3,12	-7,3	8,5
3,1205	-3,5	9,0
3,121	0,2	9,2
3,1215	3,8	8,8
3,122	7,7	7,8
3,1225	11,8	6,7
3,123	16,1	5,6
3,1235	19,9	4,8
3,124	22,2	4,4
3,1245	22,6	4,3
3,125	20,9	4,8
3,1255	17,1	5,8
3,126	11,0	6,9
3,1265	3,0	8,1
3,127	-5,8	9,2
3,1275	-14,1	10,5
3,128	-21,1	12,0
3,1285	-27,3	13,3
3,129	-33,5	14,0
3,1295	-39,8	14,1
3,13	-45,5	13,7
3,1305	-48,8	13,3
3,131	-48,4	13,0
3,1315	-44,1	12,8
3,132	-37,3	12,6
3,1325	-30,2	12,5
3,133	-23,9	12,6
3,1335	-18,5	12,8
3,134	-13,6	13,1
3,1345	-9,2	13,5
3,135	-5,9	14,1
3,1355	-4,1	14,6
3,136	-3,7	15,1
3,1365	-4,0	15,5
3,137	-4,4	15,7
3,1375	-4,6	15,8
3,138	-4,4	15,6
3,1385	-4,3	15,1
3,139	-4,8	14,3
3,1395	-6,0	13,4
3,14	-7,9	12,7
3,1405	-10,4	12,3
3,141	-13,3	12,3
3,1415	-16,0	12,6
3,142	-17,9	12,9
3,1425	-19,0	13,1
3,143	-19,6	13,3
3,1435	-19,8	13,4
3,144	-20,0	13,6
3,1445	-20,4	13,7
3,145	-21,4	13,4
3,1455	-22,9	12,8
3,146	-24,2	12,0
3,1465	-24,6	11,6
3,147	-23,5	11,7
3,1475	-21,3	12,0
3,148	-18,3	12,0
3,1485	-15,1	11,8
3,149	-12,1	11,4
3,1495	-9,8	11,2
3,15	-8,3	11,1
3,1505	-7,2	11,1
3,151	-6,4	10,8
3,1515	-5,9	10,3
3,152	-5,5	9,6
3,1525	-5,2	9,0
3,153	-4,8	8,9
3,1535	-4,1	9,3
3,154	-3,3	10,0
3,1545	-2,5	10,4
3,155	-2,3	10,5
3,1555	-2,8	10,2
3,156	-3,8	9,8
3,1565	-4,8	9,9
3,157	-5,2	10,4
3,1575	-4,9	11,3
3,158	-4,2	12,0
3,1585	-3,1	12,2
3,159	-1,7	11,8
3,1595	0,3	11,2
3,16	3,1	10,4
3,1605	7,0	9,6
3,161	12,5	8,9
3,1615	19,1	8,3
3,162	25,3	7,6
3,1625	28,9	7,1
3,163	29,2	7,1
3,1635	26,9	7,7
3,164	23,6	8,6
3,1645	19,9	9,8
3,165	15,9	11,0
3,1655	11,3	12,1
3,166	6,3	12,8
3,1665	1,6	13,0
3,167	-2,0	12,8
3,1675	-4,0	12,4
3,168	-5,0	12,1
3,1685	-6,1	11,6
3,169	-8,1	11,1
3,1695	-11,3	10,6
3,17	-15,3	10,3
3,1705	-19,5	9,9
3,171	-22,9	9,5
3,1715	-25,1	9,0
3,172	-26,5	8,7
3,1725	-27,8	8,7
3,173	-29,0	8,7
3,1735	-30,2	8,5
3,174	-31,5	8,1
3,1745	-32,8	7,5
3,175	-34,0	7,1
3,1755	-34,2	7,0
3,176	-32,8	7,6
3,1765	-30,0	8,4
3,177	-26,1	9,1
3,1775	-21,6	9,4
3,178	-17,4	9,4
3,1785	-14,1	9,1
3,179	-12,0	8,8
3,1795	-11,4	8,6
3,18	-11,8	8,3
3,1805	-12,7	7,7
3,181	-13,3	6,7
3,1815	-13,5	5,4
3,182	-12,8	4,3
3,1825	-11,0	3,2
3,183	-8,1	2,4
3,1835	-4,5	2,0
3,184	-0,8	1,8
3,1845	2,7	2,1
3,185	5,8	2,7
3,1855	8,5	3,8
3,186	10,5	5,1
3,1865	11,6	6,7
3,187	11,9	8,1
3,1875	12,0	9,1
3,188	12,7	9,4
3,1885	14,7	9,2
3,189	17,7	9,0
3,1895	20,7	8,9
3,19	22,1	8,9
3,1905	21,1	8,7
3,191	17,8	8,1
3,1915	12,4	7,4
3,192	5,7	7,0
3,1925	-1,7	7,3
3,193	-9,6	8,1
3,1935	-17,6	8,9
3,194	-25,3	9,0
3,1945	-31,9	8,5
3,195	-36,7	7,7
3,1955	-39,9	7,0
3,196	-41,8	6,6
3,1965	-43,1	6,5
3,197	-43,5	6,3
3,1975	-42,9	5,7
3,198	-41,2	5,1
3,1985	-38,4	4,4
3,199	-34,6	3,8
3,1995	-30,1	2,9
3,2	-25,6	2,2
3,2005	-21,7	1,8
3,201	-18,2	1,7
3,2015	-14,5	2,0
3,202	-10,2	2,5
3,2025	-5,7	3,2
3,203	-1,6	4,0
3,2035	1,3	4,6
3,204	2,9	4,7
3,2045	3,7	4,6
3,205	4,2	4,6
3,2055	4,8	4,8
3,206	5,7	5,2
3,2065	6,3	5,4
3,207	5,8	5,6
3,2075	4,2	5,8
3,208	1,8	6,1
3,2085	-1,3	6,5
3,209	-5,5	7,2
3,2095	-10,5	8,0
3,21	-15,4	8,8
3,2105	-19,2	9,2
3,211	-21,3	8,8
3,2115	-20,7	7,9
3,212	-16,6	6,7
3,2125	-8,7	5,6
3,213	1,2	4,9
3,2135	10,4	4,3
3,214	17,3	3,8
3,2145	21,7	3,3
3,215	24,5	2,4
3,2155	26,4	1,4
3,216	27,1	0,4
3,2165	25,4	-0,4
3,217	20,4	-0,5
3,2175	11,7	0,2
3,218	-0,3	1,5
3,2185	-14,5	2,7
3,219	-29,2	3,5
3,2195	-42,2	3,8
3,22	-51,9	3,9
3,2205	-57,4	3,8
3,221	-58,6	3,7
3,2215	-56,1	3,6
3,222	-51,3	3,5
3,2225	-45,3	3,3
3,223	-39,1	2,8
3,2235	-32,7	2,2
3,224	-26,3	1,9
3,2245	-20,1	2,1
3,225	-14,6	2,7
3,2255	-9,7	3,4
3,226	-5,2	3,9
3,2265	-0,8	4,0
3,227	3,4	3,8
3,2275	6,6	3,2
3,228	8,4	2,7
3,2285	8,9	2,4
3,229	7,7	2,8
3,2295	5,2	3,5
3,23	2,6	4,5
3,2305	1,4	5,1
3,231	3,0	5,2
3,2315	7,8	4,7
3,232	15,1	3,8
3,2325	23,3	2,9
3,233	30,3	2,0
3,2335	34,5	1,1
3,234	35,3	0,2
3,2345	33,2	-0,8
3,235	29,0	-1,7
3,2355	24,0	-2,0
3,236	19,2	-1,8
3,2365	14,5	-1,0
3,237	9,5	0,1
3,2375	3,8	1,1
3,238	-2,9	1,9
3,2385	-10,1	2,4
3,239	-16,7	3,1
3,2395	-21,9	3,8
3,24	-25,5	4,3
3,2405	-28,2	4,6
3,241	-30,9	4,4
3,2415	-33,6	3,9
3,242	-35,7	3,3
3,2425	-36,3	3,0
3,243	-35,3	2,9
3,2435	-33,5	2,9
3,244	-31,9	2,7
3,2445	-30,8	2,2
3,245	-29,2	1,5
3,2455	-26,4	0,8
3,246	-22,5	0,1
3,2465	-18,3	-0,3
3,247	-14,5	-0,5
3,2475	-11,4	-0,7
3,248	-8,9	-0,7
3,2485	-6,6	-0,7
3,249	-4,4	-0,7
3,2495	-2,5	-0,8
3,25	-0,9	-1,0
3,2505	0,3	-1,1
3,251	1,0	-1,1
3,2515	1,3	-0,9
3,252	1,5	-0,6
3,2525	2,2	-0,0
3,253	3,8	0,8
3,2535	6,0	2,1
3,254	8,2	3,5
3,2545	9,9	4,6
3,255	10,4	5,1
3,2555	9,1	5,3
3,256	5,8	5,4
3,2565	0,4	5,8
3,257	-6,7	6,0
3,2575	-14,9	6,0
3,258	-23,4	5,6
3,2585	-31,2	5,0
3,259	-37,1	4,2
3,2595	-39,6	3,2
3,26	-37,7	1,9
3,2605	-30,8	0,5
3,261	-20,4	-0,9
3,2615	-8,8	-2,2
3,262	1,6	-3,1
3,2625	9,1	-3,5
3,263	12,9	-3,3
3,2635	13,7	-2,7
3,264	11,8	-2,1
3,2645	7,9	-1,8
3,265	2,6	-1,6
3,2655	-3,0	-1,4
3,266	-8,2	-1,1
3,2665	-12,8	-0,6
3,267	-17,0	-0,1
3,2675	-20,6	0,6
3,268	-23,4	1,3
3,2685	-25,2	2,1
3,269	-25,9	3,1
3,2695	-25,5	4,3
3,27	-24,2	5,4
3,2705	-22,1	6,0
3,271	-19,3	5,9
3,2715	-15,8	5,2
3,272	-11,8	4,2
3,2725	-8,1	3,3
3,273	-4,9	2,8
3,2735	-2,5	2,8
3,274	-1,0	3,2
3,2745	-0,9	3,6
3,275	-2,1	3,8
3,2755	-4,0	4,0
3,276	-6,1	4,2
3,2765	-7,9	4,4
3,277	-9,2	4,6
3,2775	-10,3	4,6
3,278	-11,4	4,2
3,2785	-12,8	3,4
3,279	-14,4	2,6
3,2795	-16,3	2,0
3,28	-18,1	1,8
3,2805	-19,3	2,3
3,281	-19,8	3,3
3,2815	-19,6	4,3
3,282	-19,0	4,8
3,2825	-18,1	4,7
3,283	-17,3	4,2
3,2835	-17,4	3,6
3,284	-18,6	3,2
3,2845	-20,3	3,1
3,285	-21,2	3,3
3,2855	-19,8	3,7
3,286	-16,7	4,0
3,2865	-12,9	4,2
3,287	-10,2	4,3
3,2875	-9,2	4,2
3,288	-9,2	3,8
3,2885	-8,8	3,1
3,289	-6,9	2,2
3,2895	-3,7	1,3
3,29	-0,4	0,6
3,2905	1,7	0,5
3,291	1,6	0,8
3,2915	-0,6	1,5
3,292	-4,5	2,3
3,2925	-10,2	3,2
3,293	-17,3	4,2
3,2935	-24,3	5,3
3,294	-29,3	6,2
3,2945	-31,1	6,7
3,295	-30,3	6,4
3,2955	-27,5	5,4
3,296	-23,6	4,1
3,2965	-19,5	2,7
3,297	-16,4	1,3
3,2975	-15,0	0,2
3,298	-15,0	-0,8
3,2985	-15,3	-1,6
3,299	-15,2	-2,3
3,2995	-14,4	-3,1
3,3	-13,6	-3,8
3,3005	-13,1	-4,4
3,301	-13,7	-4,8
3,3015	-15,6	-4,8
3,302	-18,4	-4,3
3,3025	-21,7	-3,5
3,303	-24,5	-2,4
3,3035	-26,2	-1,3
3,304	-26,5	-0,5
3,3045	-25,3	-0,3
3,305	-22,7	-0,5
3,3055	-18,9	-1,0
3,306	-14,0	-1,5
3,3065	-8,2	-1,9
3,307	-1,7	-2,1
3,3075	4,6	-2,0
3,308	9,8	-1,8
3,3085	13,6	-1,4
3,309	16,4	-1,4
3,3095	18,4	-1,5
3,31	19,3	-1,8
3,3105	18,2	-2,1
3,311	14,5	-2,3
3,3115	8,6	-2,3
3,312	1,7	-2,1
3,3125	-4,8	-1,6
3,313	-9,8	-1,1
3,3135	-13,1	-0,8
3,314	-14,3	-1,1
3,3145	-13,1	-2,2
3,315	-9,6	-3,7
3,3155	-4,2	-5,2
3,316	1,8	-6,2
3,3165	7,0	-6,7
3,317	10,7	-6,4
3,3175	12,2	-5,5
3,318	11,6	-4,3
3,3185	9,2	-2,9
3,319	5,8	-1,8
3,3195	2,4	-0,9
3,32	-0,9	-0,3
3,3205	-4,4	0,3
3,321	-8,5	0,6
3,3215	-13,3	0,9
3,322	-18,2	1,1
3,3225	-22,6	1,4
3,323	-26,1	1,8
3,3235	-29,0	2,0
3,324	-31,8	2,2
3,3245	-34,6	2,2
3,325	-37,1	2,2
3,3255	-38,8	2,3
3,326	-39,3	2,5
3,3265	-38,0	2,5
3,327	-35,0	2,4
3,3275	-30,9	1,9
3,328	-26,7	1,1
3,3285	-23,0	-0,0
3,329	-19,8	-0,9
3,3295	-16,6	-1,3
3,33	-13,1	-1,1
3,3305	-9,4	-0,5
3,331	-6,3	0,0
3,3315	-4,5	0,4
3,332	-3,7	0,8
3,3325	-3,2	1,0
3,333	-2,3	1,0
3,3335	-0,9	0,9
3,334	0,6	0,7
3,3345	1,7	0,5
3,335	2,1	0,6
3,3355	2,2	1,1
3,336	2,3	1,7
3,3365	2,6	2,0
3,337	3,0	1,8
3,3375	3,2	1,3
3,338	3,6	0,6
3,3385	4,3	-0,2
3,339	5,4	-1,0
3,3395	6,8	-1,9
3,34	8,8	-2,6
3,3405	11,5	-3,0
3,341	14,9	-2,7
3,3415	18,5	-1,8
3,342	21,8	-0,7
3,3425	23,8	0,5
3,343	23,9	1,4
3,3435	21,3	2,2
3,344	15,8	2,9
3,3445	7,9	3,2
3,345	-1,2	3,3
3,3455	-9,9	3,1
3,346	-17,3	2,9
3,3465	-23,3	3,2
3,347	-28,2	3,8
3,3475	-32,1	4,9
3,348	-35,0	6,0
3,3485	-36,9	6,7
3,349	-37,8	6,9
3,3495	-37,2	6,4
3,35	-34,2	5,4
3,3505	-28,5	4,0
3,351	-20,3	2,4
3,3515	-10,5	1,0
3,352	-0,8	0,2
3,3525	7,6	-0,2
3,353	13,7	-0,3
3,3535	17,0	-0,6
3,354	17,8	-1,1
3,3545	16,7	-1,9
3,355	14,3	-2,6
3,3555	11,3	-3,2
3,356	8,1	-3,4
3,3565	4,8	-3,3
3,357	1,2	-2,9
3,3575	-2,4	-2,1
3,358	-5,0	-1,0
3,3585	-6,2	0,4
3,359	-6,1	1,5
3,3595	-5,7	2,4
3,36	-5,7	3,0
3,3605	-6,6	3,3
3,361	-9,2	3,2
3,3615	-13,8	2,8
3,362	-20,5	1,8
3,3625	-28,5	0,7
3,363	-36,8	-0,5
3,3635	-44,2	-1,0
3,364	-49,4	-0,8
3,3645	-51,8	0,2
3,365	-51,1	1,3
3,3655	-48,1	1,9
3,366	-44,1	1,9
3,3665	-39,8	1,2
3,367	-35,0	-0,1
3,3675	-29,9	-1,4
3,368	-24,7	-2,7
3,3685	-19,9	-3,6
3,369	-15,0	-4,1
3,3695	-9,2	-4,4
3,37	-2,1	-4,6
3,3705	5,1	-4,5
3,371	10,8	-4,3
3,3715	14,1	-4,2
3,372	14,8	-4,4
3,3725	13,9	-4,7
3,373	11,7	-4,8
3,3735	7,9	-4,9
3,374	2,4	-4,8
3,3745	-4,2	-4,4
3,375	-10,9	-3,8
3,3755	-16,8	-3,0
3,376	-21,9	-2,3
3,3765	-26,7	-1,6
3,377	-31,0	-1,3
3,3775	-35,0	-1,3
3,378	-38,5	-1,2
3,3785	-41,4	-1,0
3,379	-43,5	-0,5
3,3795	-45,0	0,3
3,38	-46,1	1,3
3,3805	-46,8	2,2
3,381	-46,9	2,8
3,3815	-45,8	2,7
3,382	-43,0	2,0
3,3825	-38,6	0,9
3,383	-32,8	-0,1
3,3835	-26,8	-0,6
3,384	-21,6	-0,6
3,3845	-17,9	-0,4
3,385	-15,0	0,1
3,3855	-12,4	0,7
3,386	-9,6	1,2
3,3865	-6,5	1,6
3,387	-3,2	1,6
3,3875	0,3	1,2
3,388	3,9	0,6
3,3885	7,2	-0,1
3,389	9,4	-0,8
3,3895	10,8	-1,5
3,39	11,3	-2,1
3,3905	11,1	-2,6
3,391	10,5	-2,8
3,3915	9,6	-2,8
3,392	8,4	-2,4
3,3925	7,0	-1,8
3,393	5,8	-0,8
3,3935	5,2	-0,0
3,394	5,4	0,1
3,3945	6,9	-0,7
3,395	9,3	-2,1
3,3955	12,0	-3,7
3,396	14,3	-4,8
3,3965	15,7	-5,0
3,397	16,8	-4,5
3,3975	18,2	-3,8
3,398	20,3	-3,1
3,3985	23,2	-2,8
3,399	26,2	-2,8
3,3995	28,4	-3,0
3,4	29,5	-3,1
3,4005	29,1	-2,9
3,401	27,5	-2,5
3,4015	24,8	-1,8
3,402	21,3	-0,9
3,4025	17,0	-0,1
3,403	12,0	0,7
3,4035	6,7	1,3
3,404	1,7	1,7
3,4045	-2,3	1,8
3,405	-4,8	1,8
3,4055	-5,8	1,7
3,406	-5,7	1,6
3,4065	-4,7	1,6
3,407	-3,4	1,3
3,4075	-2,1	0,8
3,408	-0,7	0,2
3,4085	0,8	0,0
3,409	2,1	0,6
3,4095	3,1	1,6
3,41	4,2	2,5
3,4105	5,5	3,1
3,411	6,8	3,3
3,4115	7,6	3,3
3,412	7,5	3,0
3,4125	6,3	2,8
3,413	4,1	2,9
3,4135	1,0	3,3
3,414	-2,9	3,6
3,4145	-7,0	3,7
3,415	-10,1	3,3
3,4155	-10,6	2,4
3,416	-7,9	1,3
3,4165	-3,5	0,2
3,417	1,2	-0,8
3,4175	4,8	-1,4
3,418	6,8	-1,8
3,4185	7,0	-1,9
3,419	5,7	-1,8
3,4195	2,8	-1,7
3,42	-1,3	-1,4
3,4205	-6,1	-1,1
3,421	-10,6	-0,5
3,4215	-14,0	0,2
3,422	-15,8	1,0
3,4225	-15,6	1,7
3,423	-13,5	2,4
3,4235	-10,4	3,0
3,424	-6,9	3,4
3,4245	-2,6	3,5
3,425	3,5	3,1
3,4255	11,7	2,3
3,426	21,6	1,3
3,4265	32,0	0,2
3,427	41,1	-0,8
3,4275	46,7	-1,7
3,428	48,1	-2,4
3,4285	45,4	-2,9
3,429	39,7	-3,0
3,4295	31,6	-2,6
3,43	21,4	-1,3
3,4305	9,9	0,6
3,431	-2,3	3,1
3,4315	-14,1	5,8
3,432	-24,6	8,3
3,4325	-33,6	9,9
3,433	-40,5	10,3
3,4335	-45,0	9,5
3,434	-46,8	8,3
3,4345	-46,8	7,2
3,435	-46,0	6,3
3,4355	-44,3	5,9
3,436	-40,7	5,6
3,4365	-34,9	5,2
3,437	-28,0	4,7
3,4375	-21,5	3,9
3,438	-16,3	3,0
3,4385	-12,2	2,2
3,439	-9,3	1,8
3,4395	-7,4	1,6
3,44	-6,5	1,7
3,4405	-5,9	1,8
3,441	-5,3	2,2
3,4415	-4,2	2,9
3,442	-2,5	4,0
3,4425	-0,3	5,2
3,443	2,1	6,3
3,4435	4,4	7,3
3,444	6,3	7,6
3,4445	7,8	7,5
3,445	8,9	7,1
3,4455	9,9	6,8
3,446	10,3	6,8
3,4465	10,1	6,8
3,447	9,5	7,0
3,4475	9,2	7,4
3,448	9,1	7,9
3,4485	9,2	8,3
3,449	9,6	8,2
3,4495	10,1	7,6
3,45	10,3	6,7
3,4505	9,8	5,7
3,451	8,6	5,0
3,4515	6,4	4,4
3,452	3,7	4,1
3,4525	1,1	4,0
3,453	-0,6	4,1
3,4535	-0,6	4,6
3,454	1,4	5,2
3,4545	5,1	5,4
3,455	9,4	5,0
3,4555	13,3	4,0
3,456	15,8	3,1
3,4565	16,8	2,7
3,457	15,7	2,8
3,4575	12,5	3,5
3,458	7,6	4,3
3,4585	1,7	5,3
3,459	-4,9	6,3
3,4595	-11,6	7,3
3,46	-17,8	8,4
3,4605	-23,1	9,3
3,461	-26,8	9,9
3,4615	-28,9	9,9
3,462	-29,6	9,3
3,4625	-29,8	8,6
3,463	-30,1	7,7
3,4635	-30,2	6,7
3,464	-29,9	5,4
3,4645	-28,8	3,7
3,465	-26,3	2,0
3,4655	-22,4	0,7
3,466	-17,3	-0,1
3,4665	-12,0	-0,5
3,467	-7,7	-0,6
3,4675	-4,5	-0,5
3,468	-2,0	-0,3
3,4685	0,3	0,1
3,469	2,8	0,6
3,4695	5,4	1,5
3,47	7,3	2,6
3,4705	8,2	3,6
3,471	8,0	4,3
3,4715	7,0	4,5
3,472	5,6	4,4
3,4725	4,2	4,5
3,473	2,7	5,0
3,4735	0,8	5,8
3,474	-1,8	6,7
3,4745	-4,8	7,3
3,475	-7,9	7,5
3,4755	-10,7	7,5
3,476	-12,7	7,4
3,4765	-13,5	7,2
3,477	-12,8	6,5
3,4775	-11,2	5,2
3,478	-9,5	3,6
3,4785	-8,6	2,2
3,479	-8,7	1,3
3,4795	-8,9	1,4
3,48	-8,7	2,4
3,4805	-8,2	3,8
3,481	-7,8	5,3
3,4815	-7,7	6,3
3,482	-7,2	6,7
3,4825	-6,0	6,8
3,483	-4,1	6,5
3,4835	-2,2	6,0
3,484	-0,5	5,2
3,4845	0,4	4,4
3,485	0,5	4,0
3,4855	-0,3	4,0
3,486	-1,8	4,3
3,4865	-3,5	4,7
3,487	-4,9	5,1
3,4875	-5,3	5,6
3,488	-4,8	5,8
3,4885	-3,8	5,8
3,489	-2,9	5,9
3,4895	-2,3	6,1
3,49	-1,4	6,3
3,4905	-0,1	6,3
3,491	1,6	6,2
