Interval=	0,0005 s
ExcelDateTime=	4,5909514671667537e+004	9/09/2025 12:21:07,632075
TimeFormat=	StartOfBlock
DateFormat=	
ChannelTitle=	Biceps	Triceps
Range=	1000,0 µV	1000,0 µV
0	-0,1	-0,0
0,0005	-0,6	-0,3
0,001	-2,2	-1,3
0,0015	-5,4	-2,9
0,002	-9,4	-4,6
0,0025	-12,4	-5,8
0,003	-12,9	-6,5
0,0035	-11,1	-6,8
0,004	-7,9	-7,2
0,0045	-4,4	-7,6
0,005	-1,1	-8,4
0,0055	0,9	-9,5
0,006	0,7	-10,8
0,0065	-1,9	-11,6
0,007	-6,3	-11,8
0,0075	-11,1	-11,3
0,008	-14,8	-10,5
0,0085	-16,6	-9,8
0,009	-16,6	-9,5
0,0095	-15,3	-9,7
0,01	-13,1	-10,3
0,0105	-10,3	-10,4
0,011	-8,1	-9,9
0,0115	-7,2	-8,5
0,012	-7,3	-6,6
0,0125	-7,8	-4,4
0,013	-8,3	-1,9
0,0135	-8,5	0,8
0,014	-7,8	3,6
0,0145	-5,3	6,2
0,015	-1,3	7,7
0,0155	3,4	7,8
0,016	7,6	6,4
0,0165	10,4	4,3
0,017	11,6	2,1
0,0175	11,7	0,6
0,018	10,5	-0,1
0,0185	8,3	-0,2
0,019	5,8	-0,1
0,0195	4,5	0,0
0,02	5,0	-0,2
0,0205	6,5	-0,9
0,021	8,2	-2,4
0,0215	9,5	-4,3
0,022	9,9	-6,2
0,0225	9,0	-7,9
0,023	6,4	-9,4
0,0235	2,2	-10,8
0,024	-2,7	-11,7
0,0245	-7,0	-12,0
0,025	-9,7	-12,0
0,0255	-10,7	-12,0
0,026	-10,3	-12,1
0,0265	-8,6	-12,2
0,027	-6,3	-12,2
0,0275	-4,2	-11,6
0,028	-3,2	-10,0
0,0285	-3,4	-7,2
0,029	-4,3	-3,4
0,0295	-5,2	1,0
0,03	-5,8	5,9
0,0305	-5,4	10,8
0,031	-3,3	15,1
0,0315	0,4	18,1
0,032	5,0	19,3
0,0325	9,1	18,7
0,033	11,6	16,3
0,0335	11,7	12,9
0,034	9,4	8,9
0,0345	5,7	4,6
0,035	0,9	-0,1
0,0355	-3,9	-4,9
0,036	-7,4	-9,8
0,0365	-8,4	-14,3
0,037	-7,3	-18,5
0,0375	-5,0	-21,9
0,038	-2,4	-24,0
0,0385	-0,2	-24,8
0,039	0,7	-24,7
0,0395	-0,4	-23,9
0,04	-3,3	-22,7
0,0405	-7,4	-20,9
0,041	-11,5	-18,5
0,0415	-14,7	-16,0
0,042	-16,0	-13,6
0,0425	-15,4	-11,4
0,043	-12,8	-9,4
0,0435	-9,2	-7,5
0,044	-6,3	-5,8
0,0445	-5,8	-4,3
0,045	-8,3	-2,8
0,0455	-12,1	-1,1
0,046	-15,9	0,8
0,0465	-18,4	2,7
0,047	-18,9	4,0
0,0475	-16,7	4,5
0,048	-12,1	4,3
0,0485	-5,5	3,9
0,049	2,0	4,6
0,0495	9,3	7,2
0,05	15,3	11,7
0,0505	19,3	17,6
0,051	21,5	23,7
0,0515	22,0	29,3
0,052	21,2	33,4
0,0525	20,5	35,5
0,053	21,7	35,1
0,0535	25,0	31,6
0,054	29,0	25,1
0,0545	31,1	16,0
0,055	30,1	5,8
0,0555	25,3	-4,9
0,056	16,9	-16,1
0,0565	6,3	-27,4
0,057	-4,3	-36,9
0,0575	-12,9	-42,2
0,058	-17,9	-42,5
0,0585	-19,2	-39,3
0,059	-17,6	-34,8
0,0595	-14,2	-30,8
0,06	-9,8	-27,7
0,0605	-5,5	-25,5
0,061	-3,0	-23,7
0,0615	-2,8	-21,6
0,062	-4,5	-18,9
0,0625	-6,6	-15,8
0,063	-8,4	-12,5
0,0635	-9,6	-9,3
0,064	-9,4	-6,5
0,0645	-7,5	-4,2
0,065	-4,0	-2,9
0,0655	0,5	-2,5
0,066	4,9	-2,8
0,0665	8,1	-3,4
0,067	9,3	-4,1
0,0675	8,7	-4,5
0,068	6,7	-4,8
0,0685	3,8	-5,2
0,069	1,1	-5,9
0,0695	0,0	-7,0
0,07	1,2	-8,4
0,0705	3,7	-9,9
0,071	6,2	-11,7
0,0715	8,1	-13,8
0,072	9,0	-16,0
0,0725	8,5	-17,9
0,073	6,2	-18,9
0,0735	2,5	-18,8
0,074	-1,8	-17,7
0,0745	-5,4	-16,1
0,075	-7,2	-14,4
0,0755	-6,8	-13,1
0,076	-4,8	-12,1
0,0765	-1,3	-11,2
0,077	2,6	-10,0
0,0775	5,6	-8,6
0,078	6,6	-6,9
0,0785	5,8	-4,6
0,079	4,2	-1,6
0,0795	2,7	2,3
0,08	1,7	6,7
0,0805	1,8	11,3
0,081	3,6	15,3
0,0815	7,4	18,4
0,082	12,6	20,3
0,0825	17,9	21,2
0,083	22,2	21,5
0,0835	24,5	21,7
0,084	24,6	21,2
0,0845	22,3	19,2
0,085	17,4	14,3
0,0855	10,5	6,0
0,086	3,5	-4,8
0,0865	-1,1	-14,9
0,087	-2,3	-21,7
0,0875	-1,3	-24,6
0,088	0,2	-25,2
0,0885	1,3	-25,5
0,089	1,3	-25,9
0,0895	0,2	-26,1
0,09	-2,2	-25,5
0,0905	-5,1	-24,1
0,091	-7,6	-21,9
0,0915	-8,7	-19,2
0,092	-7,9	-16,5
0,0925	-5,5	-14,3
0,093	-1,8	-12,5
0,0935	2,8	-11,0
0,094	6,8	-9,4
0,0945	8,9	-7,4
0,095	8,8	-5,2
0,0955	6,9	-2,7
0,096	4,3	-0,1
0,0965	1,7	2,2
0,097	0,0	4,0
0,0975	0,2	5,3
0,098	2,2	5,9
0,0985	5,3	6,0
0,099	7,9	5,4
0,0995	9,2	4,3
0,1	8,3	2,8
0,1005	5,2	1,3
0,101	0,8	0,1
0,1015	-4,0	-1,0
0,102	-8,0	-2,1
0,1025	-9,3	-3,4
0,103	-7,2	-4,8
0,1035	-2,6	-6,2
0,104	2,3	-7,5
0,1045	6,4	-8,5
0,105	9,4	-9,5
0,1055	10,9	-10,6
0,106	10,8	-11,5
0,1065	8,9	-12,1
0,107	6,3	-12,1
0,1075	4,2	-11,6
0,108	3,7	-10,8
0,1085	4,7	-9,9
0,109	6,6	-9,3
0,1095	8,7	-8,9
0,11	11,1	-8,4
0,1105	13,4	-7,7
0,111	14,6	-6,7
0,1115	14,0	-5,1
0,112	12,0	-2,8
0,1125	9,4	0,2
0,113	6,8	3,3
0,1135	4,7	6,0
0,114	4,0	7,6
0,1145	5,2	7,8
0,115	8,5	7,1
0,1155	13,1	5,9
0,116	17,4	4,8
0,1165	20,1	3,8
0,117	20,3	3,5
0,1175	18,2	3,8
0,118	14,3	4,8
0,1185	9,5	6,3
0,119	5,4	7,8
0,1195	3,6	8,6
0,12	4,6	8,7
0,1205	7,4	7,9
0,121	10,6	6,6
0,1215	13,8	4,9
0,122	17,1	3,3
0,1225	20,8	1,8
0,123	24,3	1,0
0,1235	26,5	0,6
0,124	26,8	-0,0
0,1245	25,1	-1,5
0,125	22,5	-3,8
0,1255	20,1	-6,1
0,126	18,6	-7,2
0,1265	18,8	-6,7
0,127	20,9	-4,6
0,1275	23,3	-1,3
0,128	24,3	2,4
0,1285	22,8	5,8
0,129	19,2	7,3
0,1295	13,7	5,9
0,13	6,7	1,4
0,1305	-0,4	-4,4
0,131	-5,7	-8,9
0,1315	-7,6	-10,4
0,132	-6,3	-9,0
0,1325	-3,0	-6,3
0,133	0,8	-3,8
0,1335	4,3	-2,2
0,134	6,6	-1,8
0,1345	7,4	-2,1
0,135	6,3	-2,8
0,1355	4,5	-3,5
0,136	3,9	-4,2
0,1365	5,6	-5,0
0,137	9,3	-6,1
0,1375	13,5	-7,6
0,138	17,1	-9,4
0,1385	19,2	-11,4
0,139	19,0	-13,7
0,1395	16,3	-16,1
0,14	11,3	-18,4
0,1405	5,1	-19,9
0,141	-0,5	-20,3
0,1415	-3,9	-19,6
0,142	-4,6	-18,2
0,1425	-2,8	-16,6
0,143	0,9	-14,8
0,1435	6,0	-12,6
0,144	11,0	-10,3
0,1445	13,9	-7,8
0,145	14,0	-5,5
0,1455	12,2	-3,1
0,146	9,8	-0,4
0,1465	7,6	2,3
0,147	6,0	4,9
0,1475	5,5	6,8
0,148	6,4	7,9
0,1485	9,0	8,2
0,149	12,7	7,8
0,1495	16,3	6,9
0,15	18,5	6,0
0,1505	19,0	5,1
0,151	17,8	4,5
0,1515	15,3	3,8
0,152	12,0	2,8
0,1525	9,4	1,3
0,153	8,7	-0,5
0,1535	10,2	-2,6
0,154	12,6	-4,8
0,1545	15,2	-7,0
0,155	17,1	-8,7
0,1555	17,9	-9,7
0,156	17,1	-10,0
0,1565	14,6	-9,8
0,157	10,9	-9,0
0,1575	7,2	-7,5
0,158	4,7	-5,1
0,1585	4,5	-1,9
0,159	6,8	1,8
0,1595	11,0	6,1
0,16	16,3	10,9
0,1605	21,7	16,1
0,161	25,8	21,6
0,1615	27,9	27,0
0,162	28,2	31,8
0,1625	27,3	35,4
0,163	25,6	37,5
0,1635	23,5	38,0
0,164	21,8	36,3
0,1645	20,6	31,8
0,165	19,9	24,5
0,1655	19,3	15,8
0,166	18,3	7,4
0,1665	16,6	0,3
0,167	13,9	-5,4
0,1675	10,5	-10,1
0,168	6,7	-13,5
0,1685	3,2	-15,4
0,169	0,9	-15,8
0,1695	1,2	-15,2
0,17	4,0	-14,4
0,1705	8,4	-14,3
0,171	13,2	-14,9
0,1715	17,4	-16,1
0,172	20,2	-17,4
0,1725	20,8	-18,7
0,173	18,7	-19,8
0,1735	14,2	-20,5
0,174	8,7	-20,5
0,1745	3,8	-19,8
0,175	1,1	-18,5
0,1755	0,9	-16,8
0,176	2,9	-14,8
0,1765	6,6	-12,6
0,177	10,9	-10,3
0,1775	14,4	-8,2
0,178	15,7	-6,3
0,1785	14,9	-4,3
0,179	12,9	-2,1
0,1795	10,7	0,2
0,18	8,8	2,7
0,1805	7,9	5,1
0,181	8,8	7,0
0,1815	11,6	8,0
0,182	15,9	8,0
0,1825	20,4	7,2
0,183	23,7	5,9
0,1835	24,9	4,4
0,184	24,1	3,2
0,1845	21,8	2,3
0,185	18,6	1,6
0,1855	15,5	1,0
0,186	14,0	0,2
0,1865	14,7	-1,3
0,187	16,8	-3,4
0,1875	19,2	-5,8
0,188	21,2	-8,4
0,1885	22,4	-10,8
0,189	22,3	-12,8
0,1895	20,5	-14,2
0,19	17,2	-14,7
0,1905	12,8	-14,2
0,191	8,2	-13,0
0,1915	4,4	-11,5
0,192	2,1	-10,1
0,1925	1,3	-8,8
0,193	2,2	-7,6
0,1935	4,4	-6,5
0,194	6,7	-5,2
0,1945	6,9	-3,5
0,195	4,0	-1,3
0,1955	-0,8	1,7
0,196	-5,4	5,8
0,1965	-8,0	11,0
0,197	-7,5	16,8
0,1975	-3,8	22,3
0,198	2,7	27,0
0,1985	11,1	30,5
0,199	20,1	33,2
0,1995	28,6	35,4
0,2	35,9	37,7
0,2005	42,0	40,3
0,201	46,3	42,8
0,2015	47,6	44,1
0,202	44,6	42,8
0,2025	38,3	37,4
0,203	30,7	27,6
0,2035	24,5	14,5
0,204	20,8	0,3
0,2045	18,8	-12,5
0,205	17,3	-22,8
0,2055	15,4	-30,5
0,206	12,8	-35,2
0,2065	9,3	-36,4
0,207	4,8	-34,2
0,2075	0,1	-29,4
0,208	-3,1	-23,8
0,2085	-3,6	-18,9
0,209	-1,7	-15,5
0,2095	1,8	-13,4
0,21	6,3	-12,2
0,2105	11,1	-11,1
0,211	14,8	-9,8
0,2115	16,1	-8,1
0,212	14,8	-6,0
0,2125	11,8	-3,8
0,213	8,5	-1,7
0,2135	5,9	0,3
0,214	5,3	1,8
0,2145	7,3	2,6
0,215	11,4	2,8
0,2155	16,7	2,4
0,216	21,7	1,7
0,2165	25,1	0,9
0,217	26,3	-0,1
0,2175	25,0	-1,0
0,218	21,9	-1,9
0,2185	17,7	-2,7
0,219	14,0	-3,5
0,2195	12,2	-4,5
0,22	12,8	-5,8
0,2205	15,3	-7,4
0,221	18,4	-9,2
0,2215	21,0	-11,1
0,222	22,2	-12,9
0,2225	21,5	-14,4
0,223	18,9	-15,6
0,2235	14,9	-16,2
0,224	10,3	-15,9
0,2245	6,4	-15,0
0,225	4,1	-13,8
0,2255	3,9	-12,4
0,226	5,3	-11,1
0,2265	7,7	-9,7
0,227	10,7	-8,2
0,2275	12,8	-6,4
0,228	13,2	-4,0
0,2285	11,8	-1,0
0,229	9,6	2,5
0,2295	7,5	6,2
0,23	6,0	9,9
0,2305	5,7	13,3
0,231	7,3	16,2
0,2315	11,1	18,3
0,232	16,1	19,5
0,2325	21,1	19,8
0,233	24,9	19,3
0,2335	26,4	18,2
0,234	25,5	16,5
0,2345	22,6	14,2
0,235	18,8	10,8
0,2355	15,2	6,4
0,236	13,6	1,3
0,2365	14,8	-3,5
0,237	18,1	-7,1
0,2375	22,2	-9,3
0,238	26,0	-10,4
0,2385	28,9	-10,9
0,239	30,4	-10,8
0,2395	30,0	-10,3
0,24	27,6	-9,3
0,2405	23,7	-7,7
0,241	19,7	-5,6
0,2415	16,8	-3,3
0,242	15,6	-1,0
0,2425	15,8	1,1
0,243	17,4	2,8
0,2435	20,1	4,2
0,244	22,9	5,3
0,2445	24,6	6,1
0,245	24,7	6,6
0,2455	23,8	7,3
0,246	22,5	8,5
0,2465	21,6	10,3
0,247	22,1	12,6
0,2475	25,3	14,8
0,248	31,5	16,1
0,2485	39,6	15,7
0,249	46,9	13,5
0,2495	51,3	10,5
0,25	51,9	8,0
0,2505	49,5	6,8
0,251	45,0	6,5
0,2515	39,3	6,7
0,252	33,0	6,7
0,2525	27,4	6,0
0,253	23,8	4,6
0,2535	21,9	2,8
0,254	21,3	0,8
0,2545	20,8	-1,1
0,255	19,9	-3,0
0,2555	17,7	-5,0
0,256	13,6	-6,8
0,2565	8,1	-8,3
0,257	2,2	-9,3
0,2575	-2,6	-9,6
0,258	-5,2	-9,2
0,2585	-5,4	-8,2
0,259	-3,7	-7,0
0,2595	-0,7	-6,3
0,26	3,3	-5,9
0,2605	7,6	-5,3
0,261	11,2	-4,2
0,2615	13,1	-2,4
0,262	13,2	-0,0
0,2625	12,0	2,9
0,263	10,2	6,2
0,2635	8,5	9,5
0,264	7,9	12,3
0,2645	8,9	14,2
0,265	11,2	14,9
0,2655	14,1	14,4
0,266	16,8	13,2
0,2665	18,3	11,8
0,267	18,3	10,8
0,2675	16,9	10,2
0,268	14,2	9,7
0,2685	11,1	9,1
0,269	8,9	7,9
0,2695	8,7	5,5
0,27	10,2	1,5
0,2705	12,4	-3,6
0,271	14,3	-8,5
0,2715	15,3	-11,9
0,272	15,0	-13,6
0,2725	12,5	-13,6
0,273	7,6	-12,0
0,2735	1,4	-9,2
0,274	-4,5	-5,5
0,2745	-8,4	-1,5
0,275	-9,3	2,3
0,2755	-7,3	5,6
0,276	-3,3	8,7
0,2765	1,7	11,8
0,277	6,8	15,1
0,2775	10,8	18,5
0,278	12,8	21,3
0,2785	12,7	22,6
0,279	10,8	22,1
0,2795	8,2	20,4
0,28	5,8	18,5
0,2805	4,8	16,6
0,281	5,9	14,8
0,2815	9,6	13,1
0,282	15,6	11,7
0,2825	22,6	10,7
0,283	27,8	9,4
0,2835	29,0	7,0
0,284	26,2	3,2
0,2845	20,5	-1,3
0,285	13,5	-5,0
0,2855	7,6	-7,4
0,286	4,4	-8,7
0,2865	4,5	-9,9
0,287	6,8	-11,3
0,2875	9,8	-12,9
0,288	12,8	-14,4
0,2885	15,0	-15,8
0,289	15,3	-17,0
0,2895	13,1	-18,0
0,29	8,7	-18,4
0,2905	3,5	-17,7
0,291	-0,9	-16,0
0,2915	-3,2	-13,7
0,292	-3,1	-11,5
0,2925	-1,3	-9,6
0,293	1,6	-7,5
0,2935	5,0	-5,0
0,294	7,9	-2,3
0,2945	9,4	0,7
0,295	9,4	4,0
0,2955	8,6	7,5
0,296	7,9	10,8
0,2965	7,4	13,6
0,297	7,3	16,0
0,2975	8,2	17,9
0,298	10,5	18,9
0,2985	14,5	18,6
0,299	19,1	16,8
0,2995	22,7	13,8
0,3	23,9	10,3
0,3005	22,5	6,9
0,301	19,1	4,2
0,3015	14,6	1,7
0,302	10,3	-0,7
0,3025	7,8	-2,7
0,303	8,2	-4,3
0,3035	10,8	-5,2
0,304	14,2	-5,3
0,3045	17,5	-5,1
0,305	20,1	-5,2
0,3055	21,0	-5,6
0,306	19,4	-6,4
0,3065	15,7	-7,2
0,307	11,0	-7,5
0,3075	6,9	-7,3
0,308	4,6	-6,4
0,3085	4,3	-5,2
0,309	5,5	-3,5
0,3095	7,9	-1,9
0,31	10,6	-1,2
0,3105	12,7	-1,8
0,311	13,2	-3,6
0,3115	11,6	-5,3
0,312	8,8	-5,3
0,3125	6,1	-3,1
0,313	4,0	0,8
0,3135	2,8	5,3
0,314	3,4	9,3
0,3145	6,0	12,4
0,315	10,5	14,2
0,3155	15,8	14,8
0,316	20,5	14,6
0,3165	23,3	14,2
0,317	23,9	13,8
0,3175	23,2	13,4
0,318	21,6	13,0
0,3185	19,6	12,6
0,319	18,1	12,0
0,3195	18,2	10,7
0,32	20,3	8,5
0,3205	23,3	5,9
0,321	25,9	3,3
0,3215	27,6	1,2
0,322	27,9	-0,5
0,3225	26,3	-1,9
0,323	22,4	-3,6
0,3235	16,8	-5,6
0,324	10,8	-7,5
0,3245	5,9	-8,3
0,325	3,3	-7,3
0,3255	3,3	-4,6
0,326	5,4	-1,3
0,3265	8,8	1,7
0,327	12,8	3,6
0,3275	16,1	4,4
0,328	17,6	4,7
0,3285	17,5	5,4
0,329	16,3	7,0
0,3295	14,6	9,5
0,33	12,7	12,3
0,3305	11,5	14,7
0,331	11,8	15,9
0,3315	13,5	15,5
0,332	15,7	13,2
0,3325	17,3	9,7
0,333	17,5	6,1
0,3335	16,1	3,3
0,334	13,7	1,5
0,3345	10,3	0,5
0,335	6,1	-0,1
0,3355	1,4	-0,4
0,336	-2,3	-0,8
0,3365	-3,9	-1,4
0,337	-3,8	-2,4
0,3375	-2,9	-3,7
0,338	-2,1	-4,9
0,3385	-1,8	-5,9
0,339	-2,3	-6,7
0,3395	-3,4	-7,2
0,34	-4,7	-7,1
0,3405	-5,7	-6,3
0,341	-6,2	-5,2
0,3415	-5,9	-4,1
0,342	-4,7	-2,8
0,3425	-2,3	-0,7
0,343	1,2	2,6
0,3435	5,7	7,0
0,344	10,5	11,7
0,3445	14,5	16,0
0,345	17,1	19,8
0,3455	18,7	22,8
0,346	19,8	25,0
0,3465	20,9	26,2
0,347	22,8	26,3
0,3475	26,1	25,6
0,348	30,5	24,3
0,3485	35,0	21,9
0,349	37,8	18,1
0,3495	37,5	12,5
0,35	33,8	5,6
0,3505	27,7	-1,0
0,351	21,0	-6,2
0,3515	14,8	-9,2
0,352	9,9	-10,4
0,3525	7,2	-10,7
0,353	7,1	-10,7
0,3535	9,5	-10,8
0,354	13,6	-11,0
0,3545	18,4	-11,2
0,355	22,8	-11,2
0,3555	25,2	-10,9
0,356	24,7	-10,7
0,3565	21,3	-10,6
0,357	16,0	-10,7
0,3575	10,3	-10,9
0,358	5,9	-11,0
0,3585	3,7	-10,8
0,359	3,7	-10,3
0,3595	5,4	-9,4
0,36	8,3	-8,0
0,3605	11,4	-6,2
0,361	13,2	-4,0
0,3615	12,8	-1,7
0,362	10,6	0,6
0,3625	7,7	2,6
0,363	4,8	4,1
0,3635	2,8	5,3
0,364	2,4	6,3
0,3645	4,3	6,8
0,365	8,3	7,1
0,3655	13,5	7,1
0,366	18,1	7,2
0,3665	20,5	7,6
0,367	20,2	8,4
0,3675	17,5	9,2
0,368	13,4	9,7
0,3685	9,0	9,7
0,369	5,9	9,3
0,3695	5,2	8,8
0,37	6,7	8,3
0,3705	9,2	7,8
0,371	12,0	7,4
0,3715	15,1	7,2
0,372	18,4	7,1
0,3725	21,7	6,8
0,373	24,0	5,9
0,3735	24,3	4,2
0,374	23,0	1,9
0,3745	21,4	0,3
0,375	20,9	0,3
0,3755	21,7	1,7
0,376	22,7	2,9
0,3765	22,7	2,2
0,377	21,1	-0,7
0,3775	17,6	-4,5
0,378	12,3	-7,0
0,3785	6,2	-7,1
0,379	0,2	-4,8
0,3795	-5,0	-1,0
0,38	-9,1	3,3
0,3805	-11,9	7,4
0,381	-12,8	10,8
0,3815	-11,7	13,1
0,382	-8,9	14,0
0,3825	-5,2	13,4
0,383	-2,1	11,5
0,3835	-0,7	8,8
0,384	-1,5	5,8
0,3845	-4,1	2,8
0,385	-7,6	0,2
0,3855	-10,4	-1,8
0,386	-10,9	-2,8
0,3865	-8,8	-3,2
0,387	-5,3	-3,5
0,3875	-1,8	-4,2
0,388	1,4	-5,3
0,3885	3,8	-6,7
0,389	4,9	-8,0
0,3895	4,0	-8,8
0,39	1,1	-8,8
0,3905	-3,1	-8,1
0,391	-6,9	-6,7
0,3915	-9,0	-5,1
0,392	-8,6	-3,6
0,3925	-5,9	-2,2
0,393	-1,1	-0,7
0,3935	5,0	1,1
0,394	10,6	2,9
0,3945	13,4	4,2
0,395	13,2	4,5
0,3955	11,0	3,8
0,396	8,7	2,8
0,3965	7,1	2,8
0,397	7,0	4,0
0,3975	8,5	6,0
0,398	11,2	7,7
0,3985	14,3	8,4
0,399	17,1	8,2
0,3995	19,0	7,2
0,4	19,4	6,1
0,4005	18,2	5,4
0,401	15,6	5,1
0,4015	12,5	4,8
0,402	10,0	3,9
0,4025	9,3	2,4
0,403	10,9	0,2
0,4035	14,0	-2,3
0,404	17,3	-4,7
0,4045	20,3	-6,8
0,405	22,4	-8,4
0,4055	23,2	-9,9
0,406	21,9	-11,3
0,4065	18,4	-12,7
0,407	13,6	-13,4
0,4075	9,3	-12,2
0,408	7,4	-8,8
0,4085	8,3	-3,9
0,409	11,3	1,3
0,4095	15,9	5,9
0,41	21,3	9,9
0,4105	26,1	13,2
0,411	29,0	16,1
0,4115	29,2	18,7
0,412	27,3	20,5
0,4125	24,0	20,9
0,413	19,8	19,4
0,4135	15,0	16,2
0,414	11,0	11,8
0,4145	9,0	6,9
0,415	9,7	2,5
0,4155	12,3	-1,0
0,416	15,0	-3,5
0,4165	15,8	-5,1
0,417	13,9	-5,7
0,4175	10,0	-5,4
0,418	4,6	-4,8
0,4185	-1,0	-4,1
0,419	-5,2	-3,8
0,4195	-6,7	-3,9
0,42	-5,8	-4,8
0,4205	-3,8	-6,3
0,421	-1,9	-8,3
0,4215	-0,4	-10,7
0,422	-0,1	-13,5
0,4225	-1,7	-16,3
0,423	-5,3	-18,6
0,4235	-10,1	-19,8
0,424	-14,5	-19,5
0,4245	-17,3	-17,7
0,425	-17,8	-14,9
0,4255	-15,9	-12,0
0,426	-12,6	-8,9
0,4265	-8,6	-6,0
0,427	-5,1	-3,3
0,4275	-3,4	-1,1
0,428	-4,2	0,5
0,4285	-6,4	2,0
0,429	-8,9	3,7
0,4295	-11,1	5,7
0,43	-12,8	8,1
0,4305	-13,2	10,5
0,431	-11,5	12,5
0,4315	-7,6	13,6
0,432	-2,3	13,8
0,4325	3,0	13,5
0,433	7,0	12,9
0,4335	8,8	12,6
0,434	9,1	12,4
0,4345	8,6	12,0
0,435	7,6	11,1
0,4355	6,5	9,5
0,436	5,7	7,0
0,4365	5,3	3,2
0,437	4,9	-1,4
0,4375	4,1	-5,9
0,438	3,3	-9,4
0,4385	2,9	-11,5
0,439	2,5	-12,1
0,4395	0,9	-11,3
0,44	-2,2	-9,8
0,4405	-6,4	-7,9
0,441	-10,4	-6,0
0,4415	-12,5	-4,5
0,442	-12,1	-3,6
0,4425	-9,3	-3,4
0,443	-5,1	-3,6
0,4435	-0,3	-3,8
0,444	3,7	-3,8
0,4445	5,7	-3,1
0,445	5,8	-1,4
0,4455	4,5	1,3
0,446	2,6	4,7
0,4465	0,4	8,1
0,447	-1,5	11,0
0,4475	-2,1	12,9
0,448	-1,0	13,7
0,4485	1,3	13,5
0,449	3,9	12,6
0,4495	5,7	11,4
0,45	5,8	10,3
0,4505	4,2	9,4
0,451	1,1	8,8
0,4515	-2,8	8,5
0,452	-6,7	8,0
0,4525	-9,3	7,0
0,453	-9,6	5,3
0,4535	-7,3	2,9
0,454	-3,3	0,3
0,4545	1,3	-2,3
0,455	5,1	-4,4
0,4555	7,0	-6,2
0,456	6,5	-7,5
0,4565	3,7	-7,9
0,457	-0,3	-7,3
0,4575	-4,0	-5,5
0,458	-5,9	-2,7
0,4585	-5,3	0,5
0,459	-2,9	3,6
0,4595	0,4	6,5
0,46	4,0	9,1
0,4605	7,0	11,3
0,461	8,4	12,8
0,4615	7,6	13,7
0,462	5,2	14,2
0,4625	2,1	14,6
0,463	-0,6	15,6
0,4635	-1,8	17,3
0,464	-0,9	18,5
0,4645	1,6	18,1
0,465	5,0	15,7
0,4655	8,8	12,2
0,466	12,4	9,6
0,4665	15,1	8,9
0,467	16,2	10,0
0,4675	15,8	11,9
0,468	14,4	13,9
0,4685	12,7	15,6
0,469	11,9	16,8
0,4695	12,7	16,8
0,47	14,8	15,2
0,4705	17,0	11,6
0,471	18,9	6,6
0,4715	19,8	0,9
0,472	19,3	-4,4
0,4725	16,8	-8,4
0,473	12,0	-10,4
0,4735	6,0	-10,7
0,474	0,0	-9,8
0,4745	-4,3	-8,4
0,475	-6,0	-6,9
0,4755	-4,8	-5,5
0,476	-1,9	-4,3
0,4765	2,0	-2,9
0,477	5,8	-1,0
0,4775	8,1	2,0
0,478	8,4	6,2
0,4785	7,7	11,3
0,479	7,0	17,0
0,4795	6,9	22,7
0,48	6,9	27,3
0,4805	7,1	30,3
0,481	8,4	32,1
0,4815	11,9	33,1
0,482	17,4	33,4
0,4825	23,1	32,2
0,483	27,0	28,6
0,4835	27,9	23,1
0,484	26,8	17,1
0,4845	24,4	11,8
0,485	21,3	7,4
0,4855	17,9	3,4
0,486	15,2	-1,0
0,4865	13,8	-6,1
0,487	13,4	-10,9
0,4875	13,6	-14,6
0,488	14,3	-16,9
0,4885	15,2	-18,9
0,489	15,0	-21,3
0,4895	12,7	-23,5
0,49	8,4	-24,8
0,4905	3,3	-24,5
0,491	-0,7	-22,9
0,4915	-2,6	-20,7
0,492	-2,4	-18,1
0,4925	-0,6	-15,6
0,493	2,5	-13,2
0,4935	6,3	-10,8
0,494	9,5	-8,4
0,4945	10,8	-5,5
0,495	10,1	-2,0
0,4955	8,5	2,1
0,496	6,8	6,6
0,4965	6,2	11,2
0,497	8,1	15,5
0,4975	13,6	18,8
0,498	21,9	20,9
0,4985	31,3	21,6
0,499	39,9	21,1
0,4995	45,9	19,7
0,5	48,6	17,7
0,5005	48,3	15,5
0,501	45,8	13,8
0,5015	41,3	12,5
0,502	34,9	11,0
0,5025	28,1	8,0
0,503	21,9	2,9
0,5035	16,7	-3,4
0,504	12,0	-9,6
0,5045	7,9	-14,0
0,505	4,4	-16,1
0,5055	0,8	-16,1
0,506	-3,8	-14,7
0,5065	-9,5	-12,5
0,507	-15,7	-10,4
0,5075	-20,8	-8,7
0,508	-23,5	-7,7
0,5085	-22,8	-7,0
0,509	-19,1	-6,3
0,5095	-12,9	-5,0
0,51	-5,1	-3,1
0,5105	2,3	-0,7
0,511	7,1	2,0
0,5115	8,4	4,7
0,512	7,0	7,2
0,5125	4,4	9,4
0,513	1,9	11,5
0,5135	0,5	13,4
0,514	1,2	14,9
0,5145	4,4	15,8
0,515	9,3	16,1
0,5155	14,7	15,7
0,516	19,1	14,8
0,5165	21,7	13,4
0,517	22,0	11,6
0,5175	20,2	9,1
0,518	16,4	5,8
0,5185	11,9	2,3
0,519	8,3	-0,5
0,5195	7,0	-2,1
0,52	8,2	-3,0
0,5205	10,7	-3,9
0,521	13,7	-5,1
0,5215	16,6	-6,8
0,522	18,8	-8,7
0,5225	19,2	-10,4
0,523	17,8	-11,6
0,5235	14,9	-12,0
0,524	11,5	-11,6
0,5245	9,1	-10,5
0,525	8,5	-9,1
0,5255	9,7	-7,4
0,526	12,2	-5,5
0,5265	15,3	-3,3
0,527	18,2	-1,0
0,5275	19,5	1,3
0,528	18,6	3,5
0,5285	16,1	5,5
0,529	13,0	7,7
0,5295	10,3	10,0
0,53	8,3	12,7
0,5305	8,0	15,4
0,531	9,5	17,9
0,5315	13,0	19,8
0,532	17,8	21,1
0,5325	22,9	21,5
0,533	27,2	21,4
0,5335	29,8	21,0
0,534	30,6	20,4
0,5345	29,4	19,8
0,535	26,5	19,1
0,5355	23,3	18,0
0,536	21,0	16,5
0,5365	20,3	14,1
0,537	20,2	10,7
0,5375	19,8	6,3
0,538	19,1	1,3
0,5385	17,8	-3,4
0,539	15,6	-6,8
0,5395	12,4	-8,3
0,54	8,5	-7,6
0,5405	4,3	-5,5
0,541	1,1	-2,8
0,5415	-0,4	-0,1
0,542	0,2	1,9
0,5425	2,3	3,1
0,543	5,8	3,7
0,5435	10,2	4,1
0,544	14,3	4,9
0,5445	17,1	6,5
0,545	18,0	8,8
0,5455	17,6	11,6
0,546	16,4	14,1
0,5465	14,9	16,0
0,547	13,9	17,3
0,5475	14,2	18,0
0,548	15,9	18,3
0,5485	19,0	18,2
0,549	22,8	18,0
0,5495	25,9	17,6
0,55	26,9	16,9
0,5505	25,2	15,6
0,551	21,4	13,7
0,5515	16,8	11,3
0,552	12,8	9,1
0,5525	11,2	7,3
0,553	12,2	5,8
0,5535	15,0	4,2
0,554	18,3	2,5
0,5545	21,2	0,6
0,555	23,2	-1,3
0,5555	23,8	-2,9
0,556	22,9	-4,0
0,5565	20,3	-4,1
0,557	16,4	-3,5
0,5575	12,6	-2,4
0,558	10,1	-1,0
0,5585	9,7	0,7
0,559	11,3	2,3
0,5595	14,1	3,4
0,56	17,5	3,9
0,5605	20,1	4,4
0,561	21,2	5,7
0,5615	20,6	8,3
0,562	19,2	12,0
0,5625	17,8	16,2
0,563	16,8	20,6
0,5635	16,7	24,8
0,564	18,1	28,5
0,5645	21,0	30,9
0,565	24,9	31,3
0,5655	29,0	29,5
0,566	32,3	25,9
0,5665	33,7	21,7
0,567	32,9	17,8
0,5675	30,3	14,7
0,568	26,8	12,5
0,5685	23,7	11,6
0,569	22,0	11,9
0,5695	22,2	12,5
0,57	23,4	12,1
0,5705	24,8	10,1
0,571	25,4	6,9
0,5715	25,1	3,7
0,572	23,2	1,1
0,5725	18,8	-1,7
0,573	11,5	-5,9
0,5735	2,0	-11,5
0,574	-7,7	-16,5
0,5745	-15,0	-19,0
0,575	-18,2	-18,4
0,5755	-17,7	-15,4
0,576	-14,4	-11,4
0,5765	-9,4	-7,2
0,577	-4,0	-3,3
0,5775	-0,1	0,3
0,578	1,5	3,6
0,5785	1,2	6,5
0,579	-0,4	9,0
0,5795	-2,9	11,0
0,58	-6,0	12,3
0,5805	-8,2	12,7
0,581	-7,8	12,0
0,5815	-4,4	10,8
0,582	1,0	9,3
0,5825	6,4	7,9
0,583	10,3	6,6
0,5835	12,0	5,3
0,584	11,6	4,0
0,5845	9,6	2,6
0,585	6,6	1,6
0,5855	4,1	0,9
0,586	3,3	0,3
0,5865	4,5	-0,4
0,587	7,1	-1,6
0,5875	10,3	-3,1
0,588	13,9	-4,4
0,5885	17,2	-5,5
0,589	18,6	-6,3
0,5895	17,1	-7,1
0,59	13,1	-7,6
0,5905	8,3	-7,6
0,591	4,1	-7,1
0,5915	1,5	-6,1
0,592	0,9	-4,7
0,5925	2,3	-3,1
0,593	5,4	-1,2
0,5935	9,5	1,0
0,594	13,0	3,3
0,5945	14,7	5,4
0,595	14,2	7,1
0,5955	12,2	8,3
0,596	9,5	9,2
0,5965	6,7	10,0
0,597	5,0	10,9
0,5975	5,5	12,1
0,598	8,5	13,1
0,5985	13,1	13,7
0,599	17,9	13,8
0,5995	21,2	13,3
0,6	22,3	12,5
0,6005	21,0	11,4
0,601	18,2	10,1
0,6015	14,5	8,6
0,602	11,2	7,1
0,6025	9,7	5,6
0,603	10,7	4,2
0,6035	13,3	3,0
0,604	16,2	2,0
0,6045	18,1	0,9
0,605	18,6	-0,5
0,6055	17,4	-2,1
0,606	14,4	-3,3
0,6065	9,9	-3,8
0,607	4,6	-3,4
0,6075	-0,2	-2,7
0,608	-3,2	-2,2
0,6085	-3,6	-1,9
0,609	-1,6	-1,6
0,6095	2,3	-0,8
0,61	7,4	0,7
0,6105	12,3	2,9
0,611	15,7	5,6
0,6115	17,4	8,6
0,612	18,5	11,7
0,6125	19,7	14,6
0,613	20,7	17,4
0,6135	21,6	20,3
0,614	23,0	23,0
0,6145	25,3	25,1
0,615	28,9	25,8
0,6155	32,8	24,1
0,616	35,9	20,0
0,6165	36,8	14,8
0,617	35,1	9,8
0,6175	31,4	6,4
0,618	26,8	4,6
0,6185	22,0	4,3
0,619	18,3	4,7
0,6195	16,9	4,9
0,62	17,6	4,4
0,6205	19,5	3,0
0,621	21,6	1,2
0,6215	23,5	-0,5
0,622	24,3	-1,8
0,6225	23,3	-2,7
0,623	20,4	-3,0
0,6235	16,2	-2,7
0,624	11,4	-1,7
0,6245	7,3	-0,6
0,625	4,8	0,0
0,6255	4,8	0,0
0,626	7,8	-0,4
0,6265	13,8	-0,6
0,627	21,1	-0,1
0,6275	27,1	1,4
0,628	29,8	3,8
0,6285	29,2	6,9
0,629	26,5	9,9
0,6295	22,9	12,4
0,63	19,1	14,3
0,6305	16,3	15,8
0,631	15,0	17,0
0,6315	15,5	17,9
0,632	17,3	18,6
0,6325	19,8	19,2
0,633	21,3	19,3
0,6335	20,8	18,9
0,634	17,7	17,6
0,6345	12,1	15,2
0,635	5,2	11,7
0,6355	-0,9	7,7
0,636	-3,9	3,8
0,6365	-3,2	0,6
0,637	0,3	-1,9
0,6375	5,2	-3,3
0,638	10,3	-3,4
0,6385	14,4	-2,8
0,639	16,7	-1,5
0,6395	17,3	0,8
0,64	16,9	4,2
0,6405	16,8	8,6
0,641	17,8	13,3
0,6415	20,4	17,4
0,642	24,0	20,5
0,6425	28,0	22,5
0,643	31,8	23,3
0,6435	34,8	22,8
0,644	35,4	21,2
0,6445	33,0	19,7
0,645	28,4	19,5
0,6455	23,0	21,1
0,646	17,1	23,1
0,6465	10,1	23,1
0,647	2,4	19,6
0,6475	-4,5	13,2
0,648	-8,9	5,9
0,6485	-9,8	-0,1
0,649	-7,8	-3,6
0,6495	-4,3	-4,4
0,65	-1,0	-3,4
0,6505	1,4	-1,6
0,651	3,2	0,4
0,6515	4,3	2,3
0,652	5,6	3,8
0,6525	7,5	4,9
0,653	10,7	5,5
0,6535	14,7	5,6
0,654	19,2	5,1
0,6545	24,0	4,4
0,655	28,7	3,6
0,6555	32,2	2,8
0,656	33,2	1,9
0,6565	31,2	0,8
0,657	26,8	-0,1
0,6575	21,6	-0,5
0,658	17,2	-1,0
0,6585	14,5	-2,0
0,659	13,7	-3,5
0,6595	14,7	-5,2
0,66	17,1	-6,7
0,6605	19,7	-7,8
0,661	20,7	-7,8
0,6615	19,6	-6,4
0,662	17,3	-3,5
0,6625	15,0	0,5
0,663	13,3	4,8
0,6635	12,8	8,8
0,664	14,1	11,8
0,6645	17,1	13,3
0,665	21,1	13,2
0,6655	25,1	11,3
0,666	27,9	8,4
0,6665	29,0	5,3
0,667	28,3	2,8
0,6675	26,4	1,3
0,668	24,1	0,5
0,6685	22,0	0,2
0,669	21,0	-0,1
0,6695	21,6	-0,4
0,67	23,7	-1,2
0,6705	26,6	-2,4
0,671	29,6	-3,8
0,6715	31,8	-4,9
0,672	32,2	-5,7
0,6725	29,9	-5,8
0,673	25,3	-5,4
0,6735	19,5	-4,6
0,674	14,1	-3,7
0,6745	10,5	-2,8
0,675	9,7	-2,1
0,6755	11,2	-1,2
0,676	14,6	-0,0
0,6765	19,1	1,3
0,677	23,5	2,6
0,6775	26,2	3,7
0,678	26,6	4,6
0,6785	25,3	5,5
0,679	23,1	6,5
0,6795	20,5	7,8
0,68	18,2	9,4
0,6805	17,5	11,2
0,681	19,4	12,6
0,6815	23,5	13,2
0,682	28,4	13,0
0,6825	32,2	12,1
0,683	33,8	11,1
0,6835	33,1	10,1
0,684	30,8	9,3
0,6845	27,6	8,6
0,685	24,3	7,8
0,6855	21,9	6,7
0,686	21,6	5,4
0,6865	23,5	3,9
0,687	26,4	2,1
0,6875	29,2	0,2
0,688	31,5	-1,8
0,6885	33,1	-3,6
0,689	33,1	-5,3
0,6895	30,9	-6,8
0,69	26,3	-8,1
0,6905	20,3	-8,9
0,691	15,0	-9,1
0,6915	12,3	-8,5
0,692	12,9	-6,8
0,6925	16,4	-4,1
0,693	21,6	-0,6
0,6935	27,1	2,8
0,694	30,7	5,8
0,6945	31,4	8,3
0,695	29,4	10,6
0,6955	25,8	13,0
0,696	21,8	15,5
0,6965	18,4	18,1
0,697	17,1	20,5
0,6975	18,6	22,1
0,698	22,5	22,3
0,6985	27,5	20,9
0,699	31,5	18,1
0,6995	33,2	14,5
0,7	32,5	10,8
0,7005	30,4	8,0
0,701	27,8	6,6
0,7015	25,5	6,5
0,702	24,0	7,7
0,7025	24,3	9,6
0,703	27,4	11,7
0,7035	32,7	13,7
0,704	38,9	14,7
0,7045	44,3	14,2
0,705	47,9	12,2
0,7055	48,8	8,8
0,706	46,4	4,8
0,7065	41,2	0,7
0,707	34,6	-3,1
0,7075	28,5	-6,1
0,708	24,4	-8,4
0,7085	22,4	-10,4
0,709	22,4	-11,7
0,7095	24,3	-11,5
0,71	27,8	-9,6
0,7105	31,3	-6,6
0,711	33,1	-3,2
0,7115	32,7	0,2
0,712	30,8	3,3
0,7125	28,6	5,9
0,713	26,8	8,2
0,7135	26,0	10,0
0,714	27,0	11,5
0,7145	30,1	12,3
0,715	35,0	12,3
0,7155	40,4	11,8
0,716	44,7	11,1
0,7165	46,4	10,4
0,717	45,3	9,8
0,7175	42,2	9,3
0,718	37,6	8,4
0,7185	32,6	7,2
0,719	28,7	5,7
0,7195	27,5	4,2
0,72	29,0	2,8
0,7205	32,2	1,8
0,721	35,8	1,2
0,7215	39,0	1,5
0,722	41,3	2,9
0,7225	42,1	5,3
0,723	41,4	8,6
0,7235	39,6	12,3
0,724	37,6	16,1
0,7245	36,6	19,5
0,725	37,2	22,0
0,7255	38,8	23,4
0,726	40,8	23,9
0,7265	42,7	23,4
0,727	44,4	21,4
0,7275	44,7	17,7
0,728	42,3	12,3
0,7285	37,6	5,9
0,729	31,8	-0,2
0,7295	26,4	-4,4
0,73	22,5	-5,6
0,7305	21,0	-3,8
0,731	22,5	-0,5
0,7315	26,4	2,4
0,732	31,6	3,8
0,7325	36,0	3,4
0,733	38,2	1,8
0,7335	37,4	-0,2
0,734	34,3	-1,9
0,7345	29,7	-2,9
0,735	24,7	-3,4
0,7355	20,8	-3,8
0,736	19,3	-4,5
0,7365	20,6	-5,5
0,737	23,6	-6,5
0,7375	27,2	-7,3
0,738	30,7	-8,0
0,7385	33,6	-8,7
0,739	35,0	-8,9
0,7395	34,2	-8,8
0,74	31,2	-8,1
0,7405	26,8	-7,0
0,741	22,9	-5,7
0,7415	21,1	-4,0
0,742	22,4	-2,0
0,7425	26,9	0,3
0,743	33,4	2,7
0,7435	39,9	4,9
0,744	44,2	6,3
0,7445	45,4	6,6
0,745	44,2	5,8
0,7455	41,5	4,7
0,746	38,2	3,7
0,7465	35,0	2,9
0,747	33,3	2,5
0,7475	34,1	2,8
0,748	37,4	4,1
0,7485	42,3	5,8
0,749	47,2	7,5
0,7495	50,9	8,7
0,75	52,9	9,3
0,7505	53,2	9,6
0,751	52,2	9,2
0,7515	50,2	8,1
0,752	48,6	6,1
0,7525	49,6	3,5
0,753	54,3	0,4
0,7535	61,7	-2,9
0,754	69,8	-6,0
0,7545	76,7	-8,3
0,755	81,1	-9,8
0,7555	81,9	-10,7
0,756	78,4	-11,1
0,7565	70,9	-11,6
0,757	60,9	-12,2
0,7575	50,8	-13,0
0,758	43,0	-13,8
0,7585	38,7	-14,0
0,759	37,8	-12,9
0,7595	39,3	-10,5
0,76	41,8	-7,2
0,7605	43,2	-3,6
0,761	41,6	-0,4
0,7615	37,1	2,5
0,762	31,2	5,0
0,7625	25,7	7,4
0,763	21,3	9,7
0,7635	18,6	12,0
0,764	18,8	14,2
0,7645	21,9	15,8
0,765	27,5	16,5
0,7655	34,1	16,3
0,766	40,0	15,2
0,7665	44,1	13,6
0,767	46,1	11,9
0,7675	46,7	10,6
0,768	46,1	9,7
0,7685	45,2	9,1
0,769	45,1	8,5
0,7695	46,9	7,1
0,77	50,5	4,8
0,7705	55,0	1,8
0,771	59,3	-1,3
0,7715	62,9	-4,1
0,772	65,2	-6,6
0,7725	65,3	-8,4
0,773	62,7	-9,6
0,7735	57,2	-10,3
0,774	50,4	-10,3
0,7745	44,2	-9,7
0,775	40,4	-8,4
0,7755	39,3	-6,9
0,776	40,8	-5,3
0,7765	44,1	-3,9
0,777	47,8	-2,6
0,7775	50,4	-1,1
0,778	51,0	0,8
0,7785	50,1	2,9
0,779	48,7	5,3
0,7795	47,3	7,6
0,78	46,4	9,8
0,7805	46,7	11,8
0,781	48,8	13,4
0,7815	52,7	14,3
0,782	57,6	14,7
0,7825	61,9	14,5
0,783	64,3	14,0
0,7835	64,2	13,2
0,784	62,0	12,2
0,7845	58,2	11,1
0,785	53,8	10,2
0,7855	50,5	9,4
0,786	49,5	8,8
0,7865	50,8	7,9
0,787	53,3	6,5
0,7875	55,5	4,6
0,788	56,8	1,9
0,7885	56,6	-1,3
0,789	54,5	-4,5
0,7895	50,7	-6,8
0,79	46,0	-7,5
0,7905	41,6	-6,5
0,791	38,7	-4,2
0,7915	38,2	-1,2
0,792	40,0	1,8
0,7925	43,0	4,6
0,793	46,5	6,9
0,7935	49,7	8,8
0,794	51,8	10,5
0,7945	52,2	12,2
0,795	51,2	14,1
0,7955	49,6	16,1
0,796	48,0	18,2
0,7965	46,4	20,5
0,797	45,5	22,8
0,7975	45,9	24,5
0,798	47,9	25,0
0,7985	51,1	23,8
0,799	54,5	21,2
0,7995	56,9	18,4
0,8	58,0	16,6
0,8005	57,9	15,9
0,801	56,8	15,9
0,8015	54,9	15,6
0,802	52,6	14,4
0,8025	51,1	12,3
0,803	50,8	9,3
0,8035	51,8	5,8
0,804	53,3	2,3
0,8045	54,8	-0,8
0,805	55,9	-3,3
0,8055	55,6	-4,7
0,806	53,6	-4,9
0,8065	50,2	-3,9
0,807	46,0	-1,9
0,8075	42,0	0,6
0,808	39,1	3,2
0,8085	38,2	5,9
0,809	39,7	8,8
0,8095	44,0	11,8
0,81	50,3	14,3
0,8105	56,7	16,2
0,811	60,4	17,3
0,8115	60,2	17,3
0,812	57,0	16,7
0,8125	52,8	15,8
0,813	49,4	15,6
0,8135	47,7	16,3
0,814	48,2	17,9
0,8145	50,9	19,8
0,815	55,1	21,2
0,8155	59,3	21,3
0,816	62,1	19,8
0,8165	62,5	17,1
0,817	60,7	14,1
0,8175	57,4	11,5
0,818	53,2	9,7
0,8185	48,9	8,5
0,819	46,1	7,8
0,8195	45,8	7,2
0,82	47,8	6,4
0,8205	50,8	5,6
0,821	53,8	4,6
0,8215	56,0	3,6
0,822	56,8	2,8
0,8225	55,6	2,4
0,823	52,4	2,7
0,8235	47,9	3,7
0,824	43,3	5,5
0,8245	39,7	8,1
0,825	37,9	11,2
0,8255	37,8	14,4
0,826	39,4	17,3
0,8265	41,9	19,4
0,827	44,2	20,5
0,8275	44,6	20,8
0,828	42,6	21,2
0,8285	39,6	22,8
0,829	37,1	25,7
0,8295	35,8	29,0
0,83	35,3	31,7
0,8305	35,7	33,4
0,831	37,2	33,8
0,8315	39,9	33,6
0,832	43,7	32,9
0,8325	47,5	32,3
0,833	50,9	31,9
0,8335	53,9	32,4
0,834	56,6	33,4
0,8345	58,1	34,3
0,835	58,1	34,2
0,8355	57,7	33,0
0,836	58,3	31,0
0,8365	60,2	28,3
0,837	62,2	25,1
0,8375	63,1	20,9
0,838	61,9	15,1
0,8385	58,2	7,5
0,839	52,2	-0,7
0,8395	44,8	-7,3
0,84	36,9	-10,6
0,8405	29,9	-9,8
0,841	25,0	-5,7
0,8415	23,0	0,2
0,842	23,7	6,3
0,8425	26,4	11,8
0,843	30,5	16,1
0,8435	35,1	19,3
0,844	38,6	21,4
0,8445	39,5	22,6
0,845	37,9	23,3
0,8455	35,3	24,4
0,846	32,9	26,2
0,8465	31,1	28,3
0,847	29,8	29,7
0,8475	29,0	29,3
0,848	29,0	26,7
0,8485	30,2	22,3
0,849	32,2	17,6
0,8495	34,4	14,3
0,85	36,0	13,3
0,8505	36,1	14,0
0,851	34,3	15,1
0,8515	30,4	15,1
0,852	26,1	13,8
0,8525	23,0	11,7
0,853	22,3	9,3
0,8535	23,5	7,1
0,854	25,8	5,2
0,8545	28,5	4,0
0,855	30,6	3,3
0,8555	31,0	3,1
0,856	29,3	3,3
0,8565	25,5	4,0
0,857	20,4	5,4
0,8575	15,8	7,3
0,858	13,2	9,3
0,8585	13,5	10,9
0,859	16,3	12,4
0,8595	20,4	13,8
0,86	24,7	15,5
0,8605	28,0	17,5
0,861	29,1	19,6
0,8615	27,9	21,9
0,862	25,3	24,5
0,8625	22,4	27,3
0,863	20,1	30,1
0,8635	19,3	33,0
0,864	20,7	35,2
0,8645	24,9	36,3
0,865	32,0	36,3
0,8655	40,7	35,3
0,866	48,9	33,9
0,8665	54,2	32,3
0,867	55,8	30,8
0,8675	54,1	29,1
0,868	50,2	27,3
0,8685	45,6	25,3
0,869	41,9	23,5
0,8695	39,8	21,8
0,87	38,9	20,0
0,8705	37,8	18,3
0,871	35,8	16,4
0,8715	32,8	14,7
0,872	28,4	13,2
0,8725	22,4	12,0
0,873	15,3	11,5
0,8735	8,0	11,8
0,874	1,8	12,7
0,8745	-2,2	14,1
0,875	-3,3	15,6
0,8755	-1,1	17,3
0,876	3,6	19,4
0,8765	9,5	21,7
0,877	14,9	23,9
0,8775	18,5	26,0
0,878	19,8	28,2
0,8785	19,6	30,5
0,879	18,3	32,7
0,8795	16,1	34,5
0,88	13,4	35,1
0,8805	11,6	34,3
0,881	11,9	32,2
0,8815	15,0	29,7
0,882	19,7	27,5
0,8825	24,2	25,8
0,883	26,4	24,5
0,8835	26,0	23,5
0,884	23,4	22,7
0,8845	19,6	22,0
0,885	15,8	21,4
0,8855	13,2	20,9
0,886	13,0	20,5
0,8865	15,2	19,8
0,887	18,5	18,3
0,8875	20,8	15,7
0,888	21,2	12,3
0,8885	19,5	8,7
0,889	16,1	5,6
0,8895	11,3	3,7
0,89	5,7	3,4
0,8905	0,4	4,4
0,891	-3,5	6,3
0,8915	-5,3	8,3
0,892	-5,0	10,2
0,8925	-3,1	11,9
0,893	0,2	13,4
0,8935	3,9	14,9
0,894	6,8	16,7
0,8945	8,0	18,9
0,895	7,6	21,7
0,8955	6,6	24,8
0,896	5,9	27,9
0,8965	5,8	30,8
0,897	7,2	33,2
0,8975	10,1	34,7
0,898	14,7	35,0
0,8985	20,3	34,1
0,899	25,7	32,4
0,8995	29,6	30,7
0,9	31,4	29,8
0,9005	31,6	29,4
0,901	29,9	29,1
0,9015	26,6	28,7
0,902	22,7	28,0
0,9025	20,0	27,3
0,903	19,3	26,3
0,9035	19,8	24,9
0,904	20,6	23,1
0,9045	20,8	20,5
0,905	19,9	16,9
0,9055	17,2	12,8
0,906	12,9	9,2
0,9065	7,7	7,4
0,907	2,7	7,8
0,9075	-0,7	9,6
0,908	-1,8	11,7
0,9085	-0,6	13,4
0,909	2,6	14,9
0,9095	6,9	16,8
0,91	11,5	19,4
0,9105	14,8	22,1
0,911	15,7	24,6
0,9115	14,3	26,7
0,912	11,9	28,6
0,9125	9,6	30,7
0,913	7,9	32,6
0,9135	7,3	33,9
0,914	8,2	33,8
0,9145	10,2	32,1
0,915	13,1	28,8
0,9155	15,9	24,8
0,916	17,9	21,1
0,9165	18,1	18,2
0,917	16,5	16,6
0,9175	13,4	16,0
0,918	9,8	15,5
0,9185	6,5	14,6
0,919	4,9	13,3
0,9195	5,9	11,8
0,92	8,8	10,3
0,9205	12,2	9,0
0,921	15,3	7,6
0,9215	17,5	6,3
0,922	18,3	5,4
0,9225	17,7	5,1
0,923	15,6	5,8
0,9235	12,8	7,5
0,924	10,1	10,0
0,9245	8,0	12,7
0,925	7,2	15,3
0,9255	7,8	17,6
0,926	9,6	19,8
0,9265	12,3	21,7
0,927	14,8	22,8
0,9275	15,7	23,0
0,928	14,2	22,6
0,9285	10,8	22,3
0,929	6,9	22,6
0,9295	3,7	23,6
0,93	1,8	25,2
0,9305	2,0	26,9
0,931	4,1	28,2
0,9315	7,6	28,7
0,932	11,7	28,1
0,9325	14,9	26,8
0,933	16,4	25,2
0,9335	15,9	23,7
0,934	14,3	22,8
0,9345	12,0	22,7
0,935	9,9	23,1
0,9355	9,5	23,7
0,936	11,5	23,9
0,9365	15,4	23,3
0,937	18,9	21,7
0,9375	20,8	18,9
0,938	20,8	15,7
0,9385	19,7	12,6
0,939	17,5	10,1
0,9395	14,1	8,4
0,94	9,6	7,8
0,9405	5,1	8,2
0,941	2,0	9,4
0,9415	1,4	11,3
0,942	3,1	13,3
0,9425	5,9	14,5
0,943	8,6	14,8
0,9435	10,2	13,7
0,944	9,6	11,9
0,9445	6,8	10,3
0,945	2,8	9,8
0,9455	-0,5	11,3
0,946	-2,6	15,0
0,9465	-3,0	19,8
0,947	-1,5	24,6
0,9475	1,9	28,6
0,948	6,8	31,4
0,9485	12,4	33,3
0,949	17,3	34,3
0,9495	20,6	34,3
0,95	21,7	33,3
0,9505	20,6	31,3
0,951	17,1	28,1
0,9515	11,4	24,0
0,952	4,9	19,5
0,9525	-0,1	15,7
0,953	-1,9	13,4
0,9535	-0,7	12,7
0,954	1,9	12,8
0,9545	4,0	13,0
0,955	4,3	12,4
0,9555	2,0	11,0
0,956	-2,2	9,6
0,9565	-7,3	8,7
0,957	-11,9	8,9
0,9575	-14,7	9,9
0,958	-14,9	10,8
0,9585	-12,8	10,5
0,959	-9,1	8,7
0,9595	-4,3	6,2
0,96	1,8	4,3
0,9605	8,1	4,0
0,961	12,4	5,3
0,9615	13,6	7,6
0,962	12,6	10,4
0,9625	11,4	13,3
0,963	11,6	16,4
0,9635	14,1	19,4
0,964	18,5	22,0
0,9645	23,9	24,0
0,965	29,3	25,0
0,9655	33,9	25,3
0,966	37,0	25,3
0,9665	37,8	25,3
0,967	36,5	25,0
0,9675	33,4	24,3
0,968	28,8	22,8
0,9685	23,7	20,9
0,969	20,7	19,0
0,9695	21,9	17,5
0,97	27,6	16,3
0,9705	35,3	14,8
0,971	42,5	12,4
0,9715	47,3	8,8
0,972	48,6	4,4
0,9725	46,3	0,7
0,973	40,8	-1,5
0,9735	33,6	-2,1
0,974	26,0	-2,1
0,9745	19,4	-2,3
0,975	14,5	-2,5
0,9755	11,5	-2,3
0,976	10,1	-1,1
0,9765	10,1	1,3
0,977	10,6	4,4
0,9775	10,1	8,1
0,978	8,0	12,1
0,9785	5,0	16,2
0,979	2,1	20,0
0,9795	-0,3	23,2
0,98	-1,9	25,4
0,9805	-2,3	26,4
0,981	-0,8	26,1
0,9815	2,8	24,8
0,982	7,8	22,6
0,9825	13,0	20,2
0,983	16,8	17,6
0,9835	18,6	14,9
0,984	18,1	12,0
0,9845	15,8	9,1
0,985	12,7	6,6
0,9855	10,5	5,0
0,986	10,6	4,2
0,9865	13,2	3,6
0,987	17,0	2,9
0,9875	20,9	1,9
0,988	24,3	0,7
0,9885	26,2	-0,7
0,989	26,0	-2,1
0,9895	23,3	-3,2
0,99	18,8	-3,8
0,9905	14,6	-3,7
0,991	12,2	-2,7
0,9915	12,6	-0,9
0,992	15,3	1,3
0,9925	19,0	3,8
0,993	23,0	6,4
0,9935	26,5	8,8
0,994	28,8	11,2
0,9945	29,3	13,3
0,995	28,6	15,3
0,9955	27,5	17,6
0,996	26,3	20,3
0,9965	24,9	23,3
0,997	24,2	25,9
0,9975	24,7	27,1
0,998	26,5	26,4
0,9985	29,4	23,9
0,999	32,1	20,9
0,9995	33,8	18,3
1	34,0	16,7
1,0005	32,5	15,6
1,001	30,0	14,3
1,0015	26,8	12,0
1,002	24,1	8,6
1,0025	23,1	4,4
1,003	24,5	0,4
1,0035	27,7	-2,3
1,004	31,8	-3,6
1,0045	36,0	-4,1
1,005	39,6	-4,1
1,0055	41,5	-3,8
1,006	40,9	-3,1
1,0065	38,1	-2,1
1,007	34,0	-0,8
1,0075	30,1	0,5
1,008	27,3	1,7
1,0085	26,0	3,1
1,009	25,8	4,7
1,0095	26,2	6,7
1,01	26,9	8,8
1,0105	27,1	10,8
1,011	25,8	12,6
1,0115	23,1	13,8
1,012	19,7	14,4
1,0125	16,2	14,5
1,013	13,3	14,4
1,0135	12,1	15,0
1,014	13,7	16,3
1,0145	18,0	17,8
1,015	23,9	18,8
1,0155	29,5	19,0
1,016	33,8	18,7
1,0165	36,3	18,4
1,017	37,1	18,6
1,0175	37,0	18,8
1,018	36,2	19,0
1,0185	35,3	18,9
1,019	35,5	18,7
1,0195	37,7	18,1
1,02	41,3	17,2
1,0205	45,1	16,0
1,021	47,9	14,3
1,0215	49,5	12,2
1,022	49,1	9,5
1,0225	45,8	6,6
1,023	39,3	4,1
1,0235	30,3	2,4
1,024	20,5	1,7
1,0245	12,4	1,8
1,025	8,0	2,3
1,0255	7,5	3,1
1,026	10,1	4,5
1,0265	14,5	6,4
1,027	18,6	8,3
1,0275	20,7	9,5
1,028	20,0	9,8
1,0285	17,3	9,7
1,029	13,8	9,7
1,0295	10,5	10,2
1,03	8,7	11,6
1,0305	9,9	13,8
1,031	14,3	16,5
1,0315	21,3	19,2
1,032	28,7	21,6
1,0325	34,5	23,4
1,033	37,6	24,8
1,0335	38,2	25,4
1,034	36,9	24,9
1,0345	34,2	23,2
1,035	30,3	20,9
1,0355	26,8	18,7
1,036	25,4	16,8
1,0365	26,1	14,8
1,037	28,1	12,6
1,0375	30,3	10,3
1,038	31,9	7,6
1,0385	32,1	3,8
1,039	30,3	-0,7
1,0395	27,0	-5,1
1,04	23,2	-8,3
1,0405	20,4	-10,2
1,041	19,1	-10,6
1,0415	19,4	-9,8
1,042	20,8	-8,3
1,0425	23,4	-6,3
1,043	27,1	-4,2
1,0435	31,6	-1,9
1,044	35,3	0,8
1,0445	36,7	3,8
1,045	35,5	6,9
1,0455	32,3	9,7
1,046	28,0	11,8
1,0465	23,7	13,2
1,047	21,2	14,2
1,0475	21,4	14,9
1,048	24,4	15,3
1,0485	29,1	15,4
1,049	33,8	15,3
1,0495	36,9	14,8
1,05	37,7	14,3
1,0505	36,3	13,6
1,051	33,7	12,9
1,0515	30,4	12,2
1,052	27,6	11,5
1,0525	26,6	10,5
1,053	27,8	9,3
1,0535	30,5	8,1
1,054	33,7	7,3
1,0545	36,7	7,3
1,055	38,9	7,7
1,0555	39,4	8,4
1,056	37,5	9,4
1,0565	33,4	10,5
1,057	28,0	11,5
1,0575	22,4	12,2
1,058	18,2	12,1
1,0585	15,9	10,9
1,059	15,6	9,1
1,0595	16,7	6,9
1,06	18,4	5,2
1,0605	19,5	4,1
1,061	19,4	4,1
1,0615	18,1	5,0
1,062	16,1	6,6
1,0625	13,9	8,6
1,063	11,7	11,1
1,0635	10,1	13,8
1,064	10,3	16,5
1,0645	12,9	18,8
1,065	18,2	20,6
1,0655	25,1	21,7
1,066	32,1	21,6
1,0665	37,1	20,4
1,067	38,7	18,2
1,0675	36,9	15,6
1,068	32,8	13,0
1,0685	28,1	10,5
1,069	25,1	7,9
1,0695	24,7	5,3
1,07	26,0	2,8
1,0705	27,6	0,6
1,071	28,4	-1,3
1,0715	28,1	-3,4
1,072	26,5	-5,7
1,0725	23,5	-7,4
1,073	19,2	-8,3
1,0735	14,3	-8,3
1,074	10,1	-7,5
1,0745	7,4	-6,5
1,075	6,9	-5,3
1,0755	8,4	-3,8
1,076	11,4	-1,7
1,0765	15,3	1,0
1,077	18,8	4,0
1,0775	20,5	6,9
1,078	20,0	9,5
1,0785	18,3	12,1
1,079	17,6	14,6
1,0795	19,1	16,9
1,08	22,8	19,1
1,0805	28,1	20,8
1,081	34,0	21,8
1,0815	39,6	21,5
1,082	43,7	19,8
1,0825	45,1	17,1
1,083	43,5	14,2
1,0835	39,4	12,2
1,084	34,1	11,3
1,0845	28,1	11,2
1,085	22,1	11,5
1,0855	17,1	11,6
1,086	14,0	10,9
1,0865	12,7	9,5
1,087	11,9	7,7
1,0875	10,9	5,6
1,088	9,3	3,5
1,0885	6,8	1,6
1,089	3,2	0,1
1,0895	-1,4	-1,0
1,09	-6,2	-2,1
1,0905	-10,2	-3,2
1,091	-12,2	-4,1
1,0915	-11,5	-4,4
1,092	-8,2	-4,0
1,0925	-3,2	-2,8
1,093	2,5	-1,0
1,0935	7,2	1,3
1,094	9,3	3,8
1,0945	8,4	6,3
1,095	5,6	8,9
1,0955	2,5	11,4
1,096	0,4	13,9
1,0965	-0,4	16,1
1,097	0,9	18,0
1,0975	4,7	19,4
1,098	10,7	20,6
1,0985	17,6	21,8
1,099	23,8	22,8
1,0995	28,4	23,7
1,1	31,0	24,1
1,1005	31,7	24,1
1,101	30,7	23,7
1,1015	28,1	22,6
1,102	25,3	20,9
1,1025	24,2	18,8
1,103	25,6	16,8
1,1035	28,5	15,1
1,104	31,3	13,8
1,1045	32,6	12,0
1,105	31,2	8,4
1,1055	26,2	3,0
1,106	18,1	-2,8
1,1065	8,5	-7,0
1,107	-0,4	-8,8
1,1075	-6,6	-8,9
1,108	-9,5	-8,6
1,1085	-9,2	-8,5
1,109	-6,6	-8,7
1,1095	-2,0	-8,7
1,11	3,6	-8,3
1,1105	8,2	-7,6
1,111	9,9	-6,5
1,1115	8,8	-4,6
1,112	6,7	-2,0
1,1125	4,9	1,1
1,113	3,7	4,0
1,1135	3,5	6,4
1,114	4,6	8,2
1,1145	7,3	9,3
1,115	11,5	9,8
1,1155	15,7	9,9
1,116	18,8	9,9
1,1165	19,7	9,7
1,117	18,2	9,2
1,1175	14,8	8,4
1,118	10,0	7,3
1,1185	5,4	6,0
1,119	2,9	4,6
1,1195	3,0	3,4
1,12	5,2	2,1
1,1205	8,0	0,9
1,121	10,5	-0,5
1,1215	12,4	-1,9
1,122	12,9	-3,3
1,1225	11,6	-4,3
1,123	8,4	-4,8
1,1235	3,9	-4,6
1,124	0,0	-3,8
1,1245	-2,1	-2,9
1,125	-1,7	-2,1
1,1255	0,5	-1,5
1,126	3,3	-1,1
1,1265	5,9	-1,0
1,127	7,2	-0,8
1,1275	6,6	0,2
1,128	4,4	2,3
1,1285	1,5	5,4
1,129	-1,4	8,8
1,1295	-3,9	12,3
1,13	-5,2	15,5
1,1305	-4,5	18,5
1,131	-1,5	21,1
1,1315	3,1	22,9
1,132	8,1	23,7
1,1325	12,1	23,4
1,133	14,2	22,2
1,1335	14,3	20,4
1,134	12,8	17,9
1,1345	9,9	14,7
1,135	6,6	10,8
1,1355	4,7	6,6
1,136	5,3	2,8
1,1365	8,1	-0,3
1,137	11,6	-3,0
1,1375	14,8	-5,4
1,138	17,4	-7,7
1,1385	18,7	-9,6
1,139	18,1	-11,1
1,1395	15,0	-12,0
1,14	9,8	-12,1
1,1405	3,8	-11,9
1,141	-0,9	-11,7
1,1415	-3,0	-11,4
1,142	-2,4	-10,9
1,1425	-0,2	-10,0
1,143	2,8	-8,4
1,1435	5,8	-6,1
1,144	7,6	-2,9
1,1445	7,5	1,1
1,145	6,1	6,0
1,1455	4,3	11,2
1,146	2,8	16,3
1,1465	2,0	20,9
1,147	2,5	24,9
1,1475	4,5	28,0
1,148	7,8	29,9
1,1485	11,6	30,7
1,149	14,9	30,5
1,1495	16,4	29,1
1,15	15,3	26,7
1,1505	11,8	23,1
1,151	6,5	18,3
1,1515	0,8	12,5
1,152	-3,9	6,3
1,1525	-6,5	0,7
1,153	-7,2	-4,1
1,1535	-7,2	-7,9
1,154	-7,1	-10,9
1,1545	-6,9	-13,0
1,155	-6,4	-13,5
1,1555	-6,5	-12,7
1,156	-7,8	-10,9
1,1565	-10,7	-8,9
1,157	-14,4	-7,0
1,1575	-17,7	-5,6
1,158	-19,1	-4,7
1,1585	-18,2	-4,7
1,159	-15,2	-5,3
1,1595	-11,0	-6,4
1,16	-6,5	-7,4
1,1605	-3,1	-7,6
1,161	-1,8	-6,4
1,1615	-2,7	-3,8
1,162	-4,6	-0,3
1,1625	-6,8	3,7
1,163	-8,4	7,5
1,1635	-8,8	10,6
1,164	-7,4	12,8
1,1645	-4,1	14,1
1,165	0,5	14,8
1,1655	5,2	15,4
1,166	8,9	16,0
1,1665	10,7	16,8
1,167	10,6	17,8
1,1675	9,0	19,0
1,168	6,6	20,0
1,1685	4,4	20,8
1,169	3,8	21,2
1,1695	5,7	20,6
1,17	9,5	18,9
1,1705	13,7	16,3
1,171	17,4	13,7
1,1715	19,9	11,8
1,172	20,7	10,9
1,1725	19,0	10,8
1,173	14,6	10,8
1,1735	8,5	10,5
1,174	3,5	9,5
1,1745	2,3	7,8
1,175	5,5	5,4
1,1755	10,9	1,9
1,176	15,5	-2,6
1,1765	17,4	-7,4
1,177	16,2	-11,7
1,1775	12,2	-14,3
1,178	6,1	-14,9
1,1785	-0,5	-13,7
1,179	-6,6	-11,0
1,1795	-11,3	-7,5
1,18	-13,9	-3,6
1,1805	-14,3	0,0
1,181	-12,6	2,6
1,1815	-9,6	4,0
1,182	-6,7	4,6
1,1825	-5,5	5,0
1,183	-6,7	5,5
1,1835	-9,8	6,1
1,184	-13,6	6,8
1,1845	-17,1	7,0
1,185	-19,3	6,6
1,1855	-19,3	5,2
1,186	-16,5	2,9
1,1865	-11,8	0,0
1,187	-6,4	-3,3
1,1875	-1,3	-6,5
1,188	2,6	-9,9
1,1885	4,5	-13,6
1,189	3,9	-17,3
1,1895	1,6	-20,3
1,19	-1,6	-21,4
1,1905	-4,5	-20,4
1,191	-6,3	-17,8
1,1915	-6,3	-14,7
1,192	-4,7	-12,1
1,1925	-2,2	-10,0
1,193	0,9	-8,4
1,1935	3,8	-6,8
1,194	5,6	-5,2
1,1945	6,2	-3,3
1,195	6,3	-0,8
1,1955	6,5	2,2
1,196	6,5	5,2
1,1965	5,8	7,6
1,197	5,1	8,9
1,1975	5,4	9,2
1,198	7,7	8,4
1,1985	11,8	7,0
1,199	16,1	5,2
1,1995	18,8	3,5
1,2	18,9	2,4
1,2005	16,9	2,2
1,201	13,6	2,6
1,2015	9,7	2,9
1,202	6,1	2,6
1,2025	4,3	1,2
1,203	4,7	-1,2
1,2035	6,4	-4,3
1,204	8,5	-7,4
1,2045	10,3	-10,1
1,205	11,3	-12,3
1,2055	10,5	-14,2
1,206	7,5	-15,4
1,2065	2,4	-15,7
1,207	-3,7	-14,9
1,2075	-9,1	-13,3
1,208	-12,3	-11,3
1,2085	-12,7	-9,3
1,209	-10,6	-7,2
1,2095	-6,6	-4,8
1,21	-1,7	-2,2
1,2105	2,2	0,5
1,211	3,8	3,0
1,2115	2,7	4,9
1,212	0,2	6,6
1,2125	-2,5	8,3
1,213	-4,8	10,2
1,2135	-6,4	11,7
1,214	-7,1	11,9
1,2145	-6,1	10,7
1,215	-3,0	8,7
1,2155	1,7	6,4
1,216	6,3	4,5
1,2165	8,9	2,9
1,217	9,1	1,4
1,2175	7,4	-0,0
1,218	4,7	-1,4
1,2185	1,8	-2,4
1,219	0,1	-3,1
1,2195	0,3	-3,9
1,22	1,8	-4,8
1,2205	4,1	-6,1
1,221	6,5	-7,3
1,2215	8,7	-8,5
1,222	9,7	-9,3
1,2225	8,3	-9,7
1,223	4,4	-9,7
1,2235	-1,3	-9,6
1,224	-7,0	-9,1
1,2245	-11,1	-8,1
1,225	-12,7	-6,8
1,2255	-12,2	-5,6
1,226	-10,5	-5,1
1,2265	-8,4	-5,2
1,227	-6,8	-5,6
1,2275	-6,8	-5,4
1,228	-8,3	-3,9
1,2285	-10,5	-1,3
1,229	-12,7	2,0
1,2295	-14,4	5,2
1,23	-15,2	7,6
1,2305	-14,5	9,1
1,231	-12,3	9,8
1,2315	-8,4	10,1
1,232	-3,8	10,5
1,2325	0,7	11,3
1,233	4,1	12,2
1,2335	6,0	13,3
1,234	6,8	14,4
1,2345	6,5	15,3
1,235	6,1	16,0
1,2355	6,6	16,2
1,236	8,8	15,7
1,2365	12,5	14,4
1,237	16,8	12,2
1,2375	20,8	8,8
1,238	23,0	3,3
1,2385	21,7	-4,8
1,239	16,0	-14,7
1,2395	6,9	-24,1
1,24	-2,9	-30,7
1,2405	-10,9	-33,3
1,241	-15,5	-32,1
1,2415	-16,7	-28,5
1,242	-14,9	-24,2
1,2425	-11,4	-19,9
1,243	-7,0	-16,4
1,2435	-3,4	-13,9
1,244	-1,8	-12,0
1,2445	-2,7	-10,3
1,245	-5,0	-8,3
1,2455	-7,5	-6,2
1,246	-9,5	-3,9
1,2465	-10,7	-1,8
1,247	-10,3	0,1
1,2475	-8,1	1,5
1,248	-4,5	2,1
1,2485	-0,1	2,1
1,249	4,0	1,5
1,2495	6,9	0,6
1,25	7,9	-0,3
1,2505	6,9	-0,9
1,251	4,5	-1,3
1,2515	1,5	-2,0
1,252	-0,8	-2,8
1,2525	-1,2	-3,7
1,253	0,6	-4,6
1,2535	3,3	-5,4
1,254	5,8	-6,4
1,2545	7,5	-7,7
1,255	7,6	-9,1
1,2555	5,5	-10,4
1,256	1,4	-11,1
1,2565	-4,1	-10,7
1,257	-9,8	-9,4
1,2575	-14,5	-7,6
1,258	-17,1	-5,5
1,2585	-17,6	-3,9
1,259	-16,7	-3,3
1,2595	-15,0	-3,9
1,26	-13,0	-5,7
1,2605	-11,4	-7,7
1,261	-10,6	-8,8
1,2615	-10,5	-8,5
1,262	-10,3	-6,7
1,2625	-9,7	-3,8
1,263	-8,5	-0,8
1,2635	-6,2	2,0
1,264	-1,9	3,8
1,2645	4,0	4,1
1,265	10,4	3,1
1,2655	15,6	1,4
1,266	18,5	0,0
1,2665	19,0	-0,8
1,267	17,0	-0,9
1,2675	13,0	-0,6
1,268	7,6	-0,5
1,2685	2,6	-1,1
1,269	-0,4	-2,6
1,2695	-0,8	-4,9
1,27	0,4	-7,5
1,2705	2,0	-10,1
1,271	3,8	-12,3
1,2715	5,4	-14,0
1,272	6,5	-15,3
1,2725	6,2	-16,2
1,273	4,6	-16,6
1,2735	3,2	-16,4
1,274	3,9	-16,1
1,2745	7,4	-15,5
1,275	12,9	-14,8
1,2755	18,7	-13,5
1,276	23,7	-11,7
1,2765	27,3	-9,4
1,277	28,8	-7,1
1,2775	27,4	-4,5
1,278	23,4	-1,8
1,2785	17,9	1,1
1,279	12,0	4,0
1,2795	6,2	6,5
1,28	1,3	8,7
1,2805	-1,8	10,6
1,281	-3,0	12,1
1,2815	-3,1	12,9
1,282	-3,3	12,3
1,2825	-4,8	9,6
1,283	-8,1	5,6
1,2835	-12,7	1,7
1,284	-17,4	-1,2
1,2845	-21,7	-2,6
1,285	-24,9	-3,3
1,2855	-26,2	-3,7
1,286	-24,6	-4,2
1,2865	-20,7	-5,0
1,287	-15,5	-5,9
1,2875	-10,2	-7,1
1,288	-5,6	-8,5
1,2885	-2,6	-10,2
1,289	-2,1	-11,8
1,2895	-4,0	-13,5
1,29	-7,6	-15,2
1,2905	-11,3	-16,3
1,291	-13,3	-16,2
1,2915	-12,5	-14,2
1,292	-8,7	-10,8
1,2925	-2,5	-6,9
1,293	4,8	-3,1
1,2935	11,3	-0,1
1,294	15,1	2,2
1,2945	15,6	3,9
1,295	13,9	5,9
1,2955	11,3	8,6
1,296	8,3	11,9
1,2965	5,6	15,4
1,297	4,0	18,1
1,2975	4,0	19,2
1,298	5,5	18,1
1,2985	8,0	15,5
1,299	10,4	12,1
1,2995	11,3	8,8
1,3	10,4	5,9
1,3005	8,1	3,3
1,301	5,0	0,3
1,3015	1,3	-3,8
1,302	-1,6	-8,5
1,3025	-2,4	-12,7
1,303	-0,9	-15,4
1,3035	1,6	-16,8
1,304	3,7	-17,7
1,3045	4,8	-18,5
1,305	4,8	-19,0
1,3055	3,8	-18,9
1,306	1,5	-17,9
1,3065	-2,6	-16,5
1,307	-7,8	-15,0
1,3075	-13,0	-14,0
1,308	-16,6	-13,3
1,3085	-17,8	-12,9
1,309	-16,3	-12,2
1,3095	-12,2	-10,9
1,31	-6,8	-8,9
1,3105	-2,3	-6,6
1,311	-1,1	-4,5
1,3115	-3,7	-3,5
1,312	-8,7	-4,0
1,3125	-14,2	-4,8
1,313	-18,2	-4,8
1,3135	-19,2	-3,0
1,314	-16,9	0,3
1,3145	-11,6	4,0
1,315	-4,6	7,5
1,3155	2,5	10,5
1,316	8,1	12,7
1,3165	10,9	14,1
1,317	10,9	14,5
1,3175	8,6	13,8
1,318	4,7	12,3
1,3185	1,2	10,6
1,319	-0,1	9,4
1,3195	2,1	8,8
1,32	6,8	8,4
1,3205	12,4	7,8
1,321	17,1	6,3
1,3215	19,8	3,5
1,322	20,3	-0,5
1,3225	18,5	-5,0
1,323	14,0	-9,2
1,3235	7,1	-12,7
1,324	-0,8	-15,8
1,3245	-7,6	-19,0
1,325	-11,6	-22,2
1,3255	-12,4	-24,3
1,326	-10,4	-24,5
1,3265	-6,5	-23,1
1,327	-2,7	-21,0
1,3275	-0,2	-18,8
1,328	0,4	-16,4
1,3285	-0,3	-13,3
1,329	-1,6	-9,5
1,3295	-2,8	-5,6
1,33	-2,6	-2,0
1,3305	0,0	1,1
1,331	5,0	3,4
1,3315	11,2	4,2
1,332	16,7	2,7
1,3325	19,8	-1,1
1,333	19,8	-6,2
1,3335	17,5	-11,0
1,334	13,9	-14,4
1,3345	10,1	-16,0
1,335	6,5	-16,3
1,3355	4,4	-15,8
1,336	4,6	-15,3
1,3365	6,5	-15,5
1,337	8,8	-16,6
1,3375	10,7	-18,2
1,338	11,9	-20,1
1,3385	12,1	-21,8
1,339	10,9	-22,6
1,3395	7,8	-22,2
1,34	3,5	-20,6
1,3405	-1,0	-18,3
1,341	-3,9	-15,9
1,3415	-4,6	-13,8
1,342	-3,5	-11,9
1,3425	-0,9	-10,3
1,343	2,4	-8,9
1,3435	5,5	-7,4
1,344	6,9	-5,6
1,3445	6,3	-3,4
1,345	4,3	-1,1
1,3455	1,9	0,9
1,346	0,0	2,3
1,3465	-0,9	2,8
1,347	-0,2	2,7
1,3475	2,4	2,3
1,348	6,3	1,8
1,3485	10,2	1,2
1,349	13,3	0,3
1,3495	14,8	-0,6
1,35	14,6	-1,4
1,3505	12,7	-2,0
1,351	9,5	-2,5
1,3515	5,9	-3,1
1,352	3,2	-4,3
1,3525	2,6	-6,1
1,353	4,3	-8,6
1,3535	7,3	-11,3
1,354	10,3	-13,8
1,3545	12,8	-15,9
1,355	14,2	-17,5
1,3555	14,0	-18,8
1,356	12,2	-19,6
1,3565	9,3	-19,8
1,357	6,3	-19,4
1,3575	4,4	-18,6
1,358	4,4	-17,6
1,3585	6,4	-16,6
1,359	9,6	-15,5
1,3595	13,7	-14,2
1,36	17,6	-12,7
1,3605	20,0	-11,1
1,361	19,9	-9,2
1,3615	17,4	-6,9
1,362	13,8	-4,5
1,3625	10,3	-2,1
1,363	7,6	0,0
1,3635	6,8	1,8
1,364	8,1	3,4
1,3645	11,0	4,9
1,365	14,7	6,3
1,3655	18,8	7,6
1,366	22,9	8,5
1,3665	26,6	8,9
1,367	29,2	8,9
1,3675	30,0	8,5
1,368	29,0	8,0
1,3685	26,8	7,4
1,369	25,3	6,9
1,3695	25,2	6,4
1,37	26,5	5,8
1,3705	28,0	5,1
1,371	28,6	3,9
1,3715	27,1	1,5
1,372	22,9	-2,3
1,3725	16,4	-7,3
1,373	8,7	-12,3
1,3735	1,1	-16,1
1,374	-5,2	-18,5
1,3745	-9,7	-19,9
1,375	-11,8	-20,8
1,3755	-11,6	-21,0
1,376	-9,1	-19,7
1,3765	-4,9	-17,1
1,377	-0,5	-13,9
1,3775	2,6	-11,0
1,378	3,8	-8,3
1,3785	3,6	-5,5
1,379	2,9	-2,6
1,3795	2,3	0,5
1,38	2,6	3,5
1,3805	4,9	6,1
1,381	9,2	7,9
1,3815	14,1	8,2
1,382	17,8	6,7
1,3825	19,1	4,0
1,383	17,9	1,2
1,3835	15,0	-0,9
1,384	11,2	-2,0
1,3845	7,1	-2,6
1,385	3,6	-2,8
1,3855	1,6	-3,2
1,386	2,1	-4,0
1,3865	4,4	-5,3
1,387	7,1	-7,1
1,3875	9,5	-9,3
1,388	11,0	-12,0
1,3885	11,2	-15,3
1,389	9,3	-18,5
1,3895	5,2	-21,1
1,39	0,0	-22,6
1,3905	-4,9	-22,8
1,391	-7,8	-22,0
1,3915	-8,0	-20,3
1,392	-5,8	-18,0
1,3925	-1,9	-15,7
1,393	2,8	-13,5
1,3935	6,9	-11,3
1,394	8,5	-9,0
1,3945	6,6	-6,5
1,395	1,9	-3,6
1,3955	-4,0	-0,6
1,396	-9,3	2,3
1,3965	-12,7	5,0
1,397	-13,2	7,5
1,3975	-10,7	9,4
1,398	-5,7	10,5
1,3985	0,4	10,7
1,399	5,9	10,1
1,3995	9,4	9,3
1,4	10,6	8,5
1,4005	9,7	7,4
1,401	7,3	5,6
1,4015	4,3	3,0
1,402	2,3	0,3
1,4025	3,1	-1,9
1,403	6,7	-3,7
1,4035	12,0	-5,3
1,404	17,4	-6,9
1,4045	21,4	-8,9
1,405	22,6	-11,3
1,4055	20,8	-13,7
1,406	16,8	-15,5
1,4065	11,4	-16,6
1,407	5,6	-17,0
1,4075	0,3	-17,3
1,408	-3,4	-17,5
1,4085	-5,2	-17,4
1,409	-5,1	-16,6
1,4095	-3,3	-15,0
1,41	-0,5	-13,0
1,4105	1,8	-11,3
1,411	2,4	-10,2
1,4115	1,4	-9,6
1,412	0,1	-8,8
1,4125	-0,5	-7,0
1,413	-0,2	-4,0
1,4135	1,3	-0,7
1,414	4,0	2,3
1,4145	7,7	4,3
1,415	11,9	5,1
1,4155	15,4	4,6
1,416	17,3	3,6
1,4165	17,1	2,6
1,417	15,2	2,0
1,4175	11,9	1,6
1,418	8,1	0,8
1,4185	4,5	-0,5
1,419	2,3	-2,5
1,4195	1,8	-5,0
1,42	2,4	-8,0
1,4205	3,5	-11,2
1,421	4,9	-14,3
1,4215	5,8	-17,1
1,422	5,4	-19,5
1,4225	3,2	-21,4
1,423	-0,6	-22,6
1,4235	-4,6	-22,8
1,424	-7,5	-21,7
1,4245	-8,6	-19,5
1,425	-7,6	-17,0
1,4255	-5,3	-14,6
1,426	-2,2	-12,6
1,4265	1,5	-11,1
1,427	4,6	-9,6
1,4275	6,2	-7,7
1,428	6,1	-5,2
1,4285	5,2	-2,2
1,429	3,9	0,6
1,4295	2,0	2,5
1,43	-0,3	3,4
1,4305	-1,8	3,3
1,431	-1,8	2,9
1,4315	0,3	2,4
1,432	3,8	1,8
1,4325	7,2	1,2
1,433	9,5	0,6
1,4335	10,3	0,4
1,434	9,6	0,8
1,4345	7,7	1,6
1,435	5,5	2,4
1,4355	4,3	3,1
1,436	4,7	3,2
1,4365	6,5	2,7
1,437	9,1	2,0
1,4375	12,4	1,4
1,438	16,1	0,5
1,4385	19,3	-0,8
1,439	21,0	-2,3
1,4395	20,3	-3,9
1,44	17,2	-5,8
1,4405	12,2	-8,3
1,441	6,9	-11,6
1,4415	2,5	-15,9
1,442	0,0	-20,0
1,4425	-0,5	-22,7
1,443	0,8	-23,2
1,4435	2,5	-21,9
1,444	3,3	-19,5
1,4445	2,3	-16,2
1,445	0,3	-11,8
1,4455	-1,4	-6,6
1,446	-2,3	-1,1
1,4465	-2,0	4,0
1,447	-0,4	8,2
1,4475	2,4	11,0
1,448	6,2	12,3
1,4485	10,3	12,1
1,449	13,7	10,9
1,4495	16,0	9,1
1,45	17,3	7,2
1,4505	17,3	5,2
1,451	15,5	3,0
1,4515	11,7	0,2
1,452	6,9	-3,8
1,4525	3,3	-8,7
1,453	2,3	-13,8
1,4535	3,8	-18,2
1,454	6,7	-21,5
1,4545	9,7	-23,6
1,455	11,5	-24,7
1,4555	11,3	-24,8
1,456	8,7	-24,4
1,4565	4,3	-23,5
1,457	-0,9	-22,3
1,4575	-5,2	-20,8
1,458	-7,5	-19,1
1,4585	-7,6	-17,3
1,459	-6,0	-15,2
1,4595	-3,0	-12,9
1,46	0,7	-10,5
1,4605	3,8	-8,0
1,461	5,9	-5,3
1,4615	7,8	-2,5
1,462	10,5	0,4
1,4625	14,0	3,1
1,463	17,8	5,6
1,4635	21,6	7,8
1,464	25,6	9,3
1,4645	29,4	9,1
1,465	32,2	7,3
1,4655	33,3	4,2
1,466	31,8	0,9
1,4665	27,8	-1,9
1,467	21,6	-4,2
1,4675	14,1	-6,0
1,468	6,1	-7,4
1,4685	-0,7	-8,2
1,469	-5,0	-8,3
1,4695	-6,4	-8,2
1,47	-6,1	-8,1
1,4705	-5,3	-8,3
1,471	-4,5	-9,3
1,4715	-4,0	-11,2
1,472	-4,5	-13,9
1,4725	-6,3	-16,8
1,473	-9,3	-19,2
1,4735	-12,4	-20,3
1,474	-14,5	-20,3
1,4745	-14,3	-19,6
1,475	-11,7	-18,4
1,4755	-7,5	-17,2
1,476	-2,8	-15,8
1,4765	1,3	-14,3
1,477	3,8	-12,8
1,4775	4,2	-11,1
1,478	2,9	-9,1
1,4785	1,0	-6,8
1,479	-0,9	-4,2
1,4795	-2,8	-1,4
1,48	-3,9	1,3
1,4805	-3,4	3,7
1,481	-1,1	5,4
1,4815	2,5	6,7
1,482	6,8	7,9
1,4825	11,1	9,7
1,483	14,5	12,2
1,4835	16,7	14,9
1,484	17,4	17,4
1,4845	17,0	19,3
1,485	16,7	20,5
1,4855	17,8	20,8
1,486	20,8	19,6
1,4865	24,4	16,6
1,487	27,2	12,0
1,4875	28,7	6,6
1,488	29,4	1,2
1,4885	29,0	-4,2
1,489	26,1	-10,6
1,4895	19,8	-18,6
1,49	10,6	-27,2
1,4905	1,4	-33,7
1,491	-5,1	-35,9
1,4915	-7,5	-34,0
1,492	-6,2	-29,7
1,4925	-2,8	-24,8
1,493	1,4	-20,6
1,4935	4,9	-17,6
1,494	6,8	-15,3
1,4945	6,8	-13,3
1,495	6,0	-10,8
1,4955	5,1	-7,9
1,496	4,6	-4,7
1,4965	4,7	-1,6
1,497	5,6	1,0
1,4975	7,6	2,7
1,498	10,5	3,2
1,4985	13,8	2,7
1,499	16,6	1,3
1,4995	18,4	-0,2
1,5	18,7	-1,3
1,5005	17,8	-2,0
1,501	15,7	-2,5
1,5015	13,2	-3,2
1,502	11,3	-4,3
1,5025	11,0	-6,2
1,503	11,9	-9,0
1,5035	13,3	-12,5
1,504	14,4	-16,3
1,5045	15,5	-19,8
1,505	16,3	-22,6
1,5055	16,1	-24,0
1,506	14,3	-23,9
1,5065	11,2	-22,6
1,507	7,7	-20,7
1,5075	4,8	-18,6
1,508	3,5	-16,7
1,5085	4,0	-15,0
1,509	5,9	-13,4
1,5095	9,0	-11,4
1,51	12,3	-9,1
1,5105	14,4	-6,5
1,511	14,6	-3,6
1,5115	13,3	-0,8
1,512	11,3	1,9
1,5125	9,3	4,4
1,513	7,8	6,7
1,5135	7,3	8,4
1,514	8,5	9,5
1,5145	11,4	9,7
1,515	15,1	9,1
1,5155	18,4	7,8
1,516	20,0	6,3
1,5165	19,3	4,8
1,517	16,9	3,8
1,5175	13,8	3,2
1,518	10,4	2,6
1,5185	7,8	1,9
1,519	7,3	0,8
1,5195	9,0	-1,2
1,52	11,7	-4,0
1,5205	14,1	-7,6
1,521	15,8	-11,4
1,5215	16,7	-15,0
1,522	16,5	-17,4
1,5225	14,8	-18,3
1,523	11,8	-18,3
1,5235	8,1	-17,6
1,524	5,2	-16,7
1,5245	4,6	-15,7
1,525	6,8	-14,5
1,5255	11,1	-13,0
1,526	16,1	-11,1
1,5265	20,7	-8,6
1,527	23,3	-6,3
1,5275	23,4	-4,4
1,528	21,4	-3,1
1,5285	18,8	-1,6
1,529	17,1	0,6
1,5295	17,0	4,1
1,53	18,5	8,2
1,5305	21,4	11,8
1,531	25,1	14,0
1,5315	28,8	14,3
1,532	31,6	13,1
1,5325	32,7	11,2
1,533	31,8	9,4
1,5335	29,4	8,6
1,534	26,4	8,5
1,5345	23,2	8,8
1,535	19,9	8,3
1,5355	16,8	5,3
1,536	14,0	-0,8
1,5365	11,0	-9,4
1,537	8,1	-18,1
1,5375	5,7	-24,3
1,538	4,1	-27,2
1,5385	2,5	-27,6
1,539	-0,2	-26,5
1,5395	-4,2	-24,8
1,54	-8,8	-22,8
1,5405	-12,9	-21,1
1,541	-15,7	-19,7
1,5415	-16,4	-18,7
1,542	-15,1	-17,8
1,5425	-11,8	-16,5
1,543	-7,3	-14,9
1,5435	-3,2	-13,0
1,544	-1,0	-11,0
1,5445	-1,2	-8,7
1,545	-3,0	-6,3
1,5455	-5,3	-4,0
1,546	-7,1	-1,9
1,5465	-7,4	0,3
1,547	-5,5	2,5
1,5475	-1,3	4,2
1,548	4,3	5,0
1,5485	10,3	4,9
1,549	15,4	4,3
1,5495	18,2	3,4
1,55	18,5	2,4
1,5505	17,4	1,3
1,551	16,6	0,1
1,5515	17,4	-1,2
1,552	20,3	-2,5
1,5525	24,6	-4,0
1,553	28,8	-5,8
1,5535	31,4	-7,8
1,554	32,3	-9,6
1,5545	31,5	-11,3
1,555	28,8	-13,0
1,5555	24,1	-14,2
1,556	18,0	-14,2
1,5565	11,7	-12,9
1,557	6,3	-10,6
1,5575	1,9	-8,2
1,558	-1,3	-6,4
1,5585	-3,5	-5,2
1,559	-4,5	-4,0
1,5595	-4,2	-2,7
1,56	-2,6	-1,2
1,5605	-1,0	0,3
1,561	-0,1	1,8
1,5615	0,3	3,3
1,562	0,8	4,8
1,5625	0,9	5,8
1,563	0,8	6,0
1,5635	1,2	4,8
1,564	2,8	2,7
1,5645	5,7	0,1
1,565	8,9	-2,6
1,5655	11,7	-5,0
1,566	13,2	-6,7
1,5665	13,3	-7,4
1,567	12,5	-7,2
1,5675	11,2	-6,5
1,568	9,7	-5,4
1,5685	8,5	-4,6
1,569	8,4	-4,3
1,5695	9,6	-4,9
1,57	11,3	-6,6
1,5705	12,5	-9,2
1,571	12,9	-12,2
1,5715	12,2	-14,7
1,572	9,8	-16,1
1,5725	5,5	-16,6
1,573	-0,3	-16,8
1,5735	-6,2	-17,4
1,574	-10,6	-18,2
1,5745	-12,3	-18,3
1,575	-10,9	-17,2
1,5755	-7,2	-15,2
1,576	-2,2	-12,8
1,5765	3,0	-10,8
1,577	6,7	-9,6
1,5775	7,5	-8,9
1,578	5,6	-7,8
1,5785	2,1	-5,8
1,579	-1,7	-2,6
1,5795	-4,4	1,1
1,58	-4,6	4,3
1,5805	-1,6	6,7
1,581	3,8	8,1
1,5815	9,6	8,7
1,582	14,1	8,4
1,5825	16,4	7,3
1,583	16,4	5,2
1,5835	14,5	2,5
1,584	11,2	-0,4
1,5845	7,2	-3,1
1,585	3,7	-5,3
1,5855	2,4	-7,0
1,586	3,6	-8,8
1,5865	5,9	-11,2
1,587	7,8	-14,2
1,5875	8,7	-17,3
1,588	8,9	-19,8
1,5885	8,2	-21,3
1,589	6,0	-21,8
1,5895	2,0	-21,4
1,59	-3,1	-20,1
1,5905	-7,6	-18,4
1,591	-10,3	-16,4
1,5915	-10,5	-14,4
1,592	-8,7	-12,3
1,5925	-5,5	-10,1
1,593	-1,8	-8,1
1,5935	1,1	-6,6
1,594	2,3	-5,3
1,5945	1,8	-3,4
1,595	0,7	-0,8
1,5955	0,2	2,2
1,596	1,0	4,9
1,5965	3,2	7,1
1,597	6,8	8,5
1,5975	11,6	9,2
1,598	16,8	9,1
1,5985	21,3	8,4
1,599	23,8	6,7
1,5995	24,1	4,3
1,6	22,4	1,8
1,6005	19,8	-0,3
1,601	16,3	-1,7
1,6015	12,3	-2,7
1,602	8,8	-3,7
1,6025	7,2	-5,2
1,603	7,4	-7,5
1,6035	8,6	-10,5
1,604	9,6	-13,8
1,6045	10,3	-17,2
1,605	10,2	-20,4
1,6055	8,8	-23,1
1,606	5,8	-24,8
1,6065	1,8	-25,3
1,607	-1,9	-24,7
1,6075	-4,2	-22,9
1,608	-4,5	-20,4
1,6085	-3,3	-17,8
1,609	-0,9	-15,3
1,6095	2,3	-13,2
1,61	6,0	-11,2
1,6105	9,3	-9,0
1,611	11,2	-6,4
1,6115	11,2	-3,5
1,612	9,6	-0,8
1,6125	7,3	1,5
1,613	5,3	3,2
1,6135	4,6	4,5
1,614	5,7	5,6
1,6145	8,4	6,1
1,615	12,1	6,0
1,6155	15,5	5,2
1,616	17,6	3,8
1,6165	17,8	2,4
1,617	16,4	1,1
1,6175	13,6	0,2
1,618	10,1	-0,0
1,6185	7,3	0,5
1,619	6,5	1,5
1,6195	8,0	2,2
1,62	10,4	2,2
1,6205	12,7	1,4
1,621	14,1	0,3
1,6215	14,4	-0,9
1,622	13,0	-1,7
1,6225	9,8	-1,9
1,623	5,3	-1,3
1,6235	0,6	-0,1
1,624	-3,0	1,2
1,6245	-4,7	1,7
1,625	-4,8	0,4
1,6255	-4,1	-2,6
1,626	-3,2	-6,9
1,6265	-2,3	-11,3
1,627	-2,1	-14,9
1,6275	-2,6	-16,5
1,628	-3,6	-15,5
1,6285	-4,0	-12,2
1,629	-3,7	-7,4
1,6295	-2,9	-2,4
1,63	-1,7	1,8
1,6305	0,4	4,4
1,631	3,7	5,2
1,6315	8,1	4,4
1,632	12,7	2,7
1,6325	16,1	0,9
1,633	17,5	-0,3
1,6335	16,6	-0,9
1,634	14,0	-1,0
1,6345	10,4	-0,8
1,635	7,1	-0,4
1,6355	5,3	-0,1
1,636	5,9	-0,2
1,6365	8,2	-1,0
1,637	11,2	-2,3
1,6375	13,9	-3,9
1,638	15,6	-5,9
1,6385	15,3	-8,3
1,639	12,6	-11,1
1,6395	7,5	-13,8
1,64	0,9	-15,8
1,6405	-5,6	-17,0
1,641	-10,4	-17,8
1,6415	-12,4	-18,8
1,642	-11,7	-19,9
1,6425	-8,8	-20,4
1,643	-4,6	-19,7
1,6435	-0,8	-17,6
1,644	1,2	-14,2
1,6445	0,8	-10,2
1,645	-1,2	-6,3
1,6455	-3,7	-3,2
1,646	-6,1	-0,6
1,6465	-8,0	1,7
1,647	-8,5	4,0
1,6475	-7,0	6,3
1,648	-3,3	8,2
1,6485	2,2	9,6
1,649	7,7	10,3
1,6495	11,7	10,4
1,65	12,9	9,8
1,6505	12,3	8,4
1,651	11,2	5,7
1,6515	10,8	1,3
1,652	12,0	-4,2
1,6525	15,0	-9,4
1,653	19,2	-13,1
1,6535	23,3	-14,8
1,654	26,5	-14,8
1,6545	28,5	-13,6
1,655	28,6	-11,5
1,6555	26,1	-9,0
1,656	21,1	-6,2
1,6565	14,4	-3,3
1,657	7,5	-0,6
1,6575	1,4	1,2
1,658	-3,6	1,3
1,6585	-7,8	-0,1
1,659	-11,3	-2,3
1,6595	-13,8	-4,6
1,66	-15,3	-6,8
1,6605	-17,0	-9,0
1,661	-20,0	-11,2
1,6615	-24,4	-13,0
1,662	-28,7	-13,9
1,6625	-31,2	-13,3
1,663	-30,7	-10,4
1,6635	-26,3	-6,0
1,664	-18,4	-1,1
1,6645	-8,3	3,0
1,665	2,4	5,5
1,6655	11,4	6,2
1,666	16,8	5,1
1,6665	18,2	3,1
1,667	16,7	0,9
1,6675	13,5	-0,9
1,668	9,9	-2,3
1,6685	7,2	-3,8
1,669	6,6	-5,9
1,6695	8,1	-9,1
1,67	10,5	-12,8
1,6705	12,5	-16,5
1,671	13,8	-19,1
1,6715	14,0	-20,4
1,672	12,6	-20,8
1,6725	9,4	-20,5
1,673	4,7	-19,7
1,6735	-0,5	-18,4
1,674	-4,9	-16,7
1,6745	-7,6	-15,0
1,675	-8,2	-13,4
1,6755	-7,5	-11,9
1,676	-6,2	-10,5
1,6765	-4,9	-9,3
1,677	-4,5	-8,4
1,6775	-5,5	-7,6
1,678	-7,5	-6,3
1,6785	-9,3	-4,6
1,679	-10,3	-2,5
1,6795	-10,3	-0,5
1,68	-9,5	1,1
1,6805	-7,8	2,1
1,681	-4,6	2,8
1,6815	-0,2	3,2
1,682	4,6	3,3
1,6825	7,8	2,5
1,683	8,0	1,0
1,6835	5,5	-0,9
1,684	1,3	-2,4
1,6845	-3,2	-3,3
1,685	-6,7	-3,7
1,6855	-8,4	-4,0
1,686	-8,2	-4,8
1,6865	-6,8	-5,9
1,687	-5,3	-7,3
1,6875	-3,9	-8,7
1,688	-2,6	-9,8
1,6885	-2,0	-10,7
1,689	-2,6	-11,4
1,6895	-4,1	-11,9
1,69	-5,5	-11,9
1,6905	-5,8	-11,4
1,691	-4,1	-10,3
1,6915	0,1	-8,1
1,692	6,8	-4,3
1,6925	14,7	0,8
1,693	22,6	6,5
1,6935	29,2	11,3
1,694	33,6	14,8
1,6945	35,6	17,1
1,695	35,7	18,5
1,6955	34,8	19,1
1,696	33,5	19,3
1,6965	32,6	19,4
1,697	32,2	19,3
1,6975	32,2	18,1
1,698	32,3	14,8
1,6985	31,8	8,7
1,699	29,7	0,6
1,6995	25,8	-7,4
1,7	20,7	-12,9
1,7005	15,3	-15,1
1,701	10,5	-14,8
1,7015	6,8	-13,1
1,702	5,0	-11,1
1,7025	5,6	-9,5
1,703	7,7	-8,9
1,7035	9,9	-9,6
1,704	11,6	-11,3
1,7045	12,7	-13,7
1,705	12,6	-16,1
1,7055	10,8	-18,3
1,706	7,1	-19,8
1,7065	2,6	-20,7
1,707	-1,3	-20,8
1,7075	-3,1	-20,2
1,708	-2,3	-18,7
1,7085	0,6	-16,8
1,709	4,6	-14,7
1,7095	9,4	-12,2
1,71	14,2	-9,1
1,7105	17,4	-5,2
1,711	18,2	-0,8
1,7115	16,7	3,9
1,712	14,3	8,5
1,7125	11,9	12,7
1,713	10,6	16,4
1,7135	11,1	19,3
1,714	13,2	21,2
1,7145	16,0	21,6
1,715	18,6	20,4
1,7155	19,6	18,0
1,716	18,6	14,4
1,7165	15,4	10,2
1,717	10,9	5,3
1,7175	5,7	0,0
1,718	0,4	-5,4
1,7185	-3,7	-10,1
1,719	-5,1	-13,5
1,7195	-3,1	-15,3
1,72	1,2	-15,8
1,7205	6,1	-15,5
1,721	10,2	-15,0
1,7215	13,0	-14,7
1,722	13,8	-14,6
1,7225	12,7	-14,5
1,723	9,7	-14,6
1,7235	5,8	-14,8
1,724	2,3	-14,8
1,7245	0,7	-14,3
1,725	1,5	-12,6
1,7255	4,0	-9,8
1,726	7,3	-7,1
1,7265	9,9	-5,8
1,727	10,1	-6,4
1,7275	7,1	-8,0
1,728	2,2	-9,2
1,7285	-2,5	-8,9
1,729	-5,8	-7,0
1,7295	-7,3	-4,3
1,73	-7,2	-1,3
1,7305	-5,4	1,2
1,731	-1,7	2,8
1,7315	4,1	3,8
1,732	11,8	4,0
1,7325	20,1	3,8
1,733	26,9	3,5
1,7335	30,8	3,0
1,734	31,3	2,3
1,7345	28,8	1,1
1,735	24,8	-0,4
1,7355	20,6	-1,8
1,736	17,5	-3,4
1,7365	15,0	-5,3
1,737	12,6	-7,5
1,7375	10,1	-9,8
1,738	7,7	-11,4
1,7385	4,9	-12,3
1,739	1,1	-12,1
1,7395	-4,3	-11,0
1,74	-10,8	-9,2
1,7405	-17,0	-7,2
1,741	-21,3	-5,1
1,7415	-22,9	-3,0
1,742	-21,3	-1,0
1,7425	-16,4	0,8
1,743	-9,3	2,0
1,7435	-1,9	2,5
1,744	3,9	2,6
1,7445	7,4	2,6
1,745	9,3	2,6
1,7455	10,0	2,6
1,746	10,0	2,8
1,7465	9,7	3,4
1,747	9,6	4,1
1,7475	10,3	4,1
1,748	11,7	3,0
1,7485	13,7	1,5
1,749	15,4	0,3
1,7495	15,9	-0,2
1,75	14,8	-0,7
1,7505	12,3	-1,5
1,751	8,9	-2,7
1,7515	5,3	-4,3
1,752	2,7	-6,1
1,7525	2,2	-7,9
1,753	3,5	-9,6
1,7535	5,5	-11,1
1,754	7,3	-12,5
1,7545	8,3	-13,9
1,755	7,8	-15,1
1,7555	5,0	-15,7
1,756	-0,3	-15,5
1,7565	-7,7	-14,2
1,757	-15,6	-11,9
1,7575	-22,3	-9,1
1,758	-26,1	-6,3
1,7585	-26,7	-3,8
1,759	-24,7	-1,5
1,7595	-20,7	0,9
1,76	-16,1	3,3
1,7605	-12,5	5,8
1,761	-10,8	8,0
1,7615	-10,7	9,4
1,762	-11,8	9,5
1,7625	-13,5	8,2
1,763	-14,9	6,1
1,7635	-14,0	4,0
1,764	-9,3	2,7
1,7645	-0,8	2,4
1,765	10,7	3,1
1,7655	23,0	4,2
1,766	33,8	5,4
1,7665	40,7	6,2
1,767	42,7	6,1
1,7675	40,4	4,7
1,768	35,3	2,5
1,7685	29,3	0,3
1,769	24,6	-1,6
1,7695	22,0	-3,4
1,77	21,2	-5,6
1,7705	21,4	-8,2
1,771	22,1	-10,8
1,7715	22,5	-13,1
1,772	21,5	-14,8
1,7725	18,6	-16,0
1,773	13,7	-16,3
1,7735	7,8	-15,8
1,774	2,7	-14,3
1,7745	-0,5	-12,3
1,775	-1,5	-10,3
1,7755	-0,7	-8,2
1,776	1,8	-5,9
1,7765	5,1	-3,7
1,777	7,7	-1,7
1,7775	8,3	-0,2
1,778	6,6	0,6
1,7785	3,5	0,9
1,779	0,2	1,3
1,7795	-2,5	2,7
1,78	-3,2	5,7
1,7805	-1,2	9,8
1,781	3,5	13,9
1,7815	10,2	17,3
1,782	17,4	19,8
1,7825	23,8	21,6
1,783	28,0	22,7
1,7835	29,8	22,8
1,784	29,2	21,5
1,7845	26,4	18,3
1,785	22,7	13,7
1,7855	20,1	8,8
1,786	20,1	4,6
1,7865	21,7	0,9
1,787	23,0	-3,0
1,7875	22,8	-7,7
1,788	20,5	-13,5
1,7885	16,0	-20,0
1,789	9,6	-26,0
1,7895	2,1	-29,8
1,79	-5,0	-30,7
1,7905	-10,2	-28,8
1,791	-12,5	-25,5
1,7915	-12,0	-22,2
1,792	-9,4	-19,3
1,7925	-5,6	-16,7
1,793	-1,0	-13,6
1,7935	3,3	-9,9
1,794	6,1	-5,4
1,7945	7,2	-0,2
1,795	7,2	5,4
1,7955	7,1	11,0
1,796	7,1	16,1
1,7965	7,6	20,2
1,797	9,4	22,7
1,7975	12,7	23,4
1,798	17,0	22,3
1,7985	21,2	19,6
1,799	24,0	16,3
1,7995	24,7	12,8
1,8	23,1	9,3
1,8005	19,6	5,6
1,801	14,5	1,0
1,8015	8,3	-4,5
1,802	2,7	-10,8
1,8025	-1,0	-17,2
1,803	-2,2	-22,8
1,8035	-1,6	-26,8
1,804	0,2	-28,9
1,8045	2,6	-29,2
1,805	4,3	-28,5
1,8055	4,4	-27,2
1,806	2,4	-25,7
1,8065	-1,0	-23,7
1,807	-4,7	-21,1
1,8075	-7,3	-18,1
1,808	-7,9	-14,9
1,8085	-6,5	-11,8
1,809	-3,6	-9,1
1,8095	0,3	-6,7
1,81	4,1	-4,3
1,8105	6,7	-1,7
1,811	7,5	1,1
1,8115	6,9	3,9
1,812	5,3	6,3
1,8125	2,8	8,0
1,813	-0,4	9,3
1,8135	-3,2	10,2
1,814	-4,2	10,5
1,8145	-3,0	9,7
1,815	0,0	7,7
1,8155	3,4	4,7
1,816	5,6	1,4
1,8165	6,0	-1,2
1,817	5,0	-2,9
1,8175	2,7	-3,7
1,818	0,0	-3,7
1,8185	-1,7	-3,2
1,819	-1,1	-2,6
1,8195	1,6	-2,3
1,82	5,1	-2,3
1,8205	8,5	-2,7
1,821	11,5	-3,4
1,8215	13,6	-4,2
1,822	14,2	-4,8
1,8225	13,2	-5,3
1,823	10,8	-5,6
1,8235	7,6	-5,8
1,824	4,1	-6,1
1,8245	1,3	-6,4
1,825	-0,4	-6,6
1,8255	-0,6	-6,4
1,826	1,1	-5,7
1,8265	4,5	-4,8
1,827	8,0	-3,9
1,8275	9,7	-3,6
1,828	8,7	-4,1
1,8285	5,7	-5,0
1,829	1,8	-5,6
1,8295	-1,7	-4,7
1,83	-3,3	-2,3
1,8305	-2,4	0,7
1,831	0,8	3,4
1,8315	5,0	5,1
1,832	8,6	5,4
1,8325	10,4	4,8
1,833	9,8	3,7
1,8335	7,8	2,8
1,834	5,8	2,4
1,8345	5,2	2,8
1,835	6,5	3,8
1,8355	9,6	4,8
1,836	13,8	5,2
1,8365	18,4	4,8
1,837	22,3	3,4
1,8375	25,1	1,2
1,838	26,1	-1,6
1,8385	24,7	-4,5
1,839	20,8	-6,7
1,8395	15,0	-7,9
1,84	8,6	-8,6
1,8405	2,7	-10,0
1,841	-1,8	-12,7
1,8415	-4,3	-15,7
1,842	-5,3	-17,3
1,8425	-4,8	-16,5
1,843	-2,9	-14,0
1,8435	-0,5	-10,6
1,844	1,1	-7,1
1,8445	1,5	-3,6
1,845	1,1	-0,3
1,8455	1,0	2,6
1,846	1,4	4,8
1,8465	2,1	6,3
1,847	3,2	6,9
1,8475	5,2	6,7
1,848	8,4	5,8
1,8485	12,3	4,4
1,849	15,8	2,8
1,8495	18,0	0,9
1,85	19,1	-1,1
1,8505	19,3	-3,1
1,851	18,4	-4,7
1,8515	16,4	-5,7
1,852	14,3	-5,8
1,8525	13,5	-5,6
1,853	14,2	-5,2
1,8535	15,9	-5,0
1,854	18,0	-5,2
1,8545	20,0	-5,8
1,855	20,8	-6,3
1,8555	19,9	-6,5
1,856	16,8	-6,0
1,8565	12,0	-5,0
1,857	7,1	-4,0
1,8575	3,3	-3,2
1,858	1,7	-3,0
1,8585	1,9	-3,4
1,859	3,4	-3,9
1,8595	5,9	-3,4
1,86	8,6	-1,6
1,8605	10,3	1,5
1,861	10,6	5,3
1,8615	10,2	8,9
1,862	9,5	11,6
1,8625	8,3	12,8
1,863	6,4	12,6
1,8635	4,8	11,5
1,864	4,5	9,7
1,8645	5,8	7,4
1,865	8,1	4,5
1,8655	10,3	1,4
1,866	11,4	-1,5
1,8665	11,2	-3,5
1,867	9,8	-4,4
1,8675	7,4	-4,6
1,868	4,5	-4,6
1,8685	2,4	-4,5
1,869	2,3	-4,7
1,8695	4,6	-5,3
1,87	8,2	-6,7
1,8705	12,2	-8,8
1,871	16,1	-11,5
1,8715	19,1	-14,0
1,872	20,4	-15,6
1,8725	19,5	-16,0
1,873	16,6	-15,2
1,8735	12,9	-13,5
1,874	9,8	-11,6
1,8745	8,0	-10,2
1,875	7,7	-9,5
1,8755	8,5	-9,3
1,876	10,2	-8,5
1,8765	12,0	-6,9
1,877	12,9	-4,3
1,8775	12,5	-1,3
1,878	11,3	1,7
1,8785	10,2	4,0
1,879	8,9	5,9
1,8795	7,5	7,5
1,88	6,6	9,2
1,8805	7,1	10,6
1,881	9,5	11,4
1,8815	13,5	11,7
1,882	17,5	11,4
1,8825	19,8	10,4
1,883	19,1	8,6
1,8835	15,8	6,4
1,884	11,3	4,7
1,8845	6,8	4,1
1,885	3,3	4,6
1,8855	2,0	5,7
1,886	3,2	6,8
1,8865	6,2	7,7
1,887	9,7	8,3
1,8875	13,1	8,5
1,888	15,8	8,3
1,8885	16,9	7,8
1,889	15,6	6,7
1,8895	11,7	4,8
1,89	6,5	2,2
1,8905	2,0	-0,4
1,891	0,3	-1,9
1,8915	1,8	-2,1
1,892	5,0	-2,0
1,8925	8,0	-2,8
1,893	9,4	-5,3
1,8935	8,4	-9,1
1,894	5,0	-12,9
1,8945	0,1	-15,1
1,895	-4,6	-14,8
1,8955	-7,9	-12,4
1,896	-9,7	-8,8
1,8965	-9,8	-4,8
1,897	-7,8	-0,8
1,8975	-3,8	2,7
1,898	1,8	5,3
1,8985	7,5	6,7
1,899	11,7	7,0
1,8995	13,3	6,7
1,9	12,2	6,0
1,9005	9,3	5,1
1,901	5,5	3,9
1,9015	2,0	2,4
1,902	-0,1	0,7
1,9025	-0,3	-1,6
1,903	0,9	-4,3
1,9035	2,3	-7,3
1,904	3,3	-10,0
1,9045	3,6	-12,0
1,905	3,2	-13,3
1,9055	1,8	-14,0
1,906	-0,3	-14,0
1,9065	-3,3	-12,9
1,907	-6,5	-10,6
1,9075	-9,1	-7,2
1,908	-10,5	-3,3
1,9085	-10,9	0,3
1,909	-10,8	2,9
1,9095	-10,9	4,3
1,91	-11,8	4,7
1,9105	-13,8	4,9
1,911	-16,7	5,6
1,9115	-19,3	7,1
1,912	-20,9	9,2
1,9125	-21,2	11,5
1,913	-20,4	13,4
1,9135	-18,3	13,8
1,914	-14,8	12,2
1,9145	-10,3	8,7
1,915	-5,1	4,6
1,9155	0,8	1,3
1,916	6,7	-0,5
1,9165	12,1	-1,0
1,917	15,8	-0,6
1,9175	17,3	-0,3
1,918	17,4	-0,5
1,9185	18,1	-1,3
1,919	20,5	-2,6
1,9195	23,8	-4,4
1,92	26,3	-6,7
1,9205	27,7	-8,8
1,921	28,4	-10,0
1,9215	28,6	-9,9
1,922	27,8	-8,6
1,9225	25,7	-6,3
1,923	22,8	-3,7
1,9235	20,1	-1,1
1,924	19,0	0,7
1,9245	19,8	1,3
1,925	22,5	0,4
1,9255	26,7	-1,4
1,926	32,2	-3,1
1,9265	37,8	-4,2
1,927	41,5	-4,7
1,9275	41,9	-4,9
1,928	39,3	-4,7
1,9285	34,7	-4,3
1,929	28,9	-3,8
1,9295	22,7	-3,4
1,93	17,1	-3,0
1,9305	13,2	-2,3
1,931	11,6	-1,4
1,9315	11,9	-0,5
1,932	12,8	0,5
1,9325	12,6	1,2
1,933	10,3	1,3
1,9335	5,8	0,4
1,934	-0,2	-1,4
1,9345	-6,6	-3,9
1,935	-11,8	-6,4
1,9355	-14,2	-8,5
1,936	-13,3	-10,1
1,9365	-10,1	-11,4
1,937	-5,9	-12,6
1,9375	-1,6	-13,9
1,938	2,3	-15,1
1,9385	5,0	-15,9
1,939	6,1	-16,1
1,9395	5,5	-15,6
1,94	4,1	-14,4
1,9405	3,1	-12,6
1,941	3,6	-10,4
1,9415	6,0	-8,1
1,942	9,8	-5,7
1,9425	14,7	-2,9
1,943	20,3	0,3
1,9435	25,3	3,9
1,944	28,5	7,8
1,9445	29,1	11,6
1,945	27,2	14,3
1,9455	23,3	15,2
1,946	18,0	14,2
1,9465	12,7	12,5
1,947	9,6	10,8
1,9475	9,7	9,1
1,948	12,1	6,9
1,9485	14,9	4,3
1,949	16,4	1,7
1,9495	16,1	-0,0
1,95	14,4	-0,6
1,9505	11,6	-0,3
1,951	8,1	0,6
1,9515	4,8	1,4
1,952	3,3	1,7
1,9525	4,6	1,1
1,953	8,3	-0,5
1,9535	13,1	-3,3
1,954	17,8	-7,2
1,9545	21,2	-11,8
1,955	21,6	-16,7
1,9555	18,3	-21,3
1,956	11,9	-24,8
1,9565	4,2	-26,8
1,957	-2,5	-27,1
1,9575	-6,6	-25,6
1,958	-7,8	-23,0
1,9585	-6,6	-19,8
1,959	-3,8	-16,7
1,9595	-0,0	-14,0
1,96	3,5	-11,5
1,9605	5,7	-8,9
1,961	5,8	-5,7
1,9615	4,8	-1,8
1,962	3,2	2,3
1,9625	1,7	6,4
1,963	0,7	10,0
1,9635	1,0	12,9
1,964	3,3	14,8
1,9645	7,4	15,9
1,965	12,8	16,3
1,9655	18,4	16,2
1,966	23,0	15,9
1,9665	25,8	15,4
1,967	26,5	14,3
1,9675	25,2	11,8
1,968	22,2	7,3
1,9685	19,1	1,2
1,969	18,0	-4,7
1,9695	19,8	-8,3
1,97	23,7	-9,3
1,9705	28,0	-8,5
1,971	31,5	-7,7
1,9715	33,1	-7,7
1,972	32,3	-8,6
1,9725	29,5	-9,8
1,973	25,2	-10,7
1,9735	20,5	-10,5
1,974	16,5	-9,1
1,9745	13,9	-7,1
1,975	12,8	-5,4
1,9755	12,6	-4,9
1,976	13,0	-6,0
1,9765	13,6	-8,1
1,977	13,4	-10,6
1,9775	11,7	-12,7
1,978	8,8	-13,8
1,9785	5,8	-13,4
1,979	3,5	-11,3
1,9795	2,6	-7,7
1,98	3,4	-3,6
1,9805	6,1	0,0
1,981	10,6	3,0
1,9815	16,2	5,2
1,982	22,1	6,8
1,9825	26,8	8,1
1,983	29,7	9,2
1,9835	30,5	10,3
1,984	29,4	11,4
1,9845	26,4	12,0
1,985	22,7	11,8
1,9855	19,7	10,0
1,986	18,1	6,5
1,9865	17,5	2,0
1,987	17,4	-2,4
1,9875	17,4	-6,1
1,988	16,9	-9,8
1,9885	14,4	-14,1
1,989	9,2	-19,0
1,9895	1,3	-23,5
1,99	-7,4	-26,7
1,9905	-14,7	-28,1
1,991	-18,6	-27,5
1,9915	-18,7	-25,3
1,992	-15,6	-22,0
1,9925	-10,2	-18,4
1,993	-3,5	-15,0
1,9935	2,5	-11,8
1,994	5,9	-8,8
1,9945	6,1	-5,8
1,995	3,8	-2,8
1,9955	0,5	0,0
1,996	-2,7	2,6
1,9965	-4,6	4,9
1,997	-4,0	6,9
1,9975	-0,6	8,6
1,998	5,1	9,9
1,9985	11,4	10,7
1,999	16,5	10,8
1,9995	19,1	10,6
2	19,6	9,9
2,0005	18,8	8,6
2,001	17,1	6,8
2,0015	14,9	4,7
2,002	13,4	2,8
2,0025	14,1	1,2
2,003	17,1	-0,2
2,0035	21,8	-1,6
2,004	27,2	-3,5
2,0045	31,3	-6,0
2,005	32,3	-8,8
2,0055	29,9	-11,4
2,006	24,9	-13,5
2,0065	18,7	-14,9
2,007	12,8	-15,3
2,0075	8,7	-14,8
2,008	7,4	-13,8
2,0085	8,4	-12,5
2,009	11,2	-11,0
2,0095	15,0	-9,1
2,01	18,4	-7,0
2,0105	19,9	-5,2
2,011	19,0	-3,4
2,0115	16,6	-1,3
2,012	14,3	1,3
2,0125	12,5	4,5
2,013	11,4	8,0
2,0135	11,6	11,0
2,014	13,7	12,7
2,0145	17,3	12,5
2,015	21,4	10,7
2,0155	24,7	7,9
2,016	26,0	5,1
2,0165	25,7	2,2
2,017	25,0	-0,9
2,0175	25,2	-4,2
2,018	26,3	-7,2
2,0185	28,4	-9,0
2,019	31,2	-9,8
2,0195	34,4	-9,9
2,02	37,4	-9,8
2,0205	39,8	-9,7
2,021	41,3	-9,6
2,0215	41,4	-9,2
2,022	39,2	-8,7
2,0225	34,3	-7,9
2,023	27,5	-6,9
2,0235	20,4	-5,4
2,024	14,8	-3,6
2,0245	11,9	-1,7
2,025	11,4	-0,0
2,0255	12,0	1,1
2,026	12,9	1,4
2,0265	13,3	0,9
2,027	12,2	-0,0
2,0275	9,4	-0,8
2,028	5,4	-1,0
2,0285	1,0	-1,1
2,029	-2,8	-1,3
2,0295	-5,3	-1,7
2,03	-5,3	-1,9
2,0305	-2,7	-1,7
2,031	2,4	-1,0
2,0315	8,5	-0,2
2,032	14,0	0,7
2,0325	17,5	1,3
2,033	18,4	1,5
2,0335	17,0	1,3
2,034	13,7	0,9
2,0345	9,3	0,5
2,035	5,5	0,0
2,0355	3,6	-0,8
2,036	4,4	-2,3
2,0365	7,1	-4,3
2,037	10,6	-6,6
2,0375	13,9	-8,8
2,038	16,6	-10,8
2,0385	17,8	-12,0
2,039	17,0	-12,3
2,0395	14,2	-11,6
2,04	10,2	-10,3
2,0405	6,7	-8,7
2,041	4,9	-7,1
2,0415	5,5	-5,5
2,042	7,8	-3,9
2,0425	11,2	-2,3
2,043	14,8	-0,5
2,0435	17,5	1,5
2,044	18,3	3,7
2,0445	17,1	6,0
2,045	14,7	8,3
2,0455	11,9	10,2
2,046	9,7	11,8
2,0465	8,8	13,5
2,047	10,2	15,3
2,0475	14,1	16,8
2,048	20,4	17,4
2,0485	28,0	17,0
2,049	35,3	15,9
2,0495	40,0	14,2
2,05	40,7	11,5
2,0505	37,1	7,2
2,051	30,3	1,3
2,0515	23,0	-5,1
2,052	17,9	-10,5
2,0525	16,4	-14,2
2,053	17,8	-16,1
2,0535	20,5	-16,8
2,054	23,3	-17,0
2,0545	25,7	-17,1
2,055	26,8	-17,3
2,0555	25,9	-17,2
2,056	22,9	-16,5
2,0565	18,6	-15,1
2,057	14,3	-13,1
2,0575	11,5	-10,8
2,058	10,8	-8,3
2,0585	11,7	-5,5
2,059	13,4	-2,0
2,0595	15,6	1,9
2,06	17,2	5,7
2,0605	17,0	8,8
2,061	14,8	10,9
2,0615	11,3	12,3
2,062	8,1	13,3
2,0625	6,0	14,4
2,063	5,8	16,1
2,0635	7,8	18,3
2,064	11,9	20,6
2,0645	17,3	22,5
2,065	22,6	23,1
2,0655	26,5	21,9
2,066	28,0	18,7
2,0665	27,0	14,3
2,067	24,2	9,8
2,0675	20,1	6,2
2,068	15,5	3,7
2,0685	11,4	2,0
2,069	8,9	0,7
2,0695	8,1	-0,6
2,07	8,4	-2,9
2,0705	8,8	-6,6
2,071	8,8	-11,2
2,0715	7,7	-15,3
2,072	5,3	-17,3
2,0725	1,9	-17,0
2,073	-1,8	-14,8
2,0735	-5,1	-11,5
2,074	-7,0	-8,1
2,0745	-7,0	-5,3
2,075	-5,2	-3,4
2,0755	-1,7	-1,9
2,076	3,5	-0,2
2,0765	9,9	2,1
2,077	16,2	4,9
2,0775	20,7	7,9
2,078	22,9	10,2
2,0785	22,9	11,7
2,079	21,7	12,3
2,0795	20,7	12,6
2,08	21,1	12,8
2,0805	23,3	12,7
2,081	26,5	11,6
2,0815	29,6	9,7
2,082	31,7	7,9
2,0825	32,4	7,4
2,083	31,6	8,5
2,0835	29,6	10,7
2,084	26,6	13,1
2,0845	22,7	14,8
2,085	18,7	14,9
2,0855	15,8	13,3
2,086	14,7	10,3
2,0865	15,1	6,6
2,087	16,4	3,2
2,0875	18,5	0,9
2,088	20,7	-0,2
2,0885	21,7	-0,8
2,089	20,2	-2,2
2,0895	15,6	-5,0
2,09	8,9	-8,9
2,0905	2,3	-12,8
2,091	-1,7	-14,9
2,0915	-1,5	-14,7
2,092	2,2	-12,3
2,0925	8,0	-8,7
2,093	13,7	-5,1
2,0935	17,1	-2,3
2,094	16,8	-0,7
2,0945	13,1	0,2
2,095	7,7	0,4
2,0955	2,6	0,5
2,096	-0,3	0,8
2,0965	0,2	1,8
2,097	4,4	3,5
2,0975	11,1	5,4
2,098	18,1	7,2
2,0985	23,8	8,3
2,099	27,3	8,6
2,0995	28,3	8,1
2,1	27,3	6,9
2,1005	24,9	5,3
2,101	21,3	3,5
2,1015	17,7	1,7
2,102	15,6	-0,1
2,1025	16,2	-1,8
2,103	19,0	-3,4
2,1035	22,4	-4,7
2,104	25,6	-5,5
2,1045	27,9	-6,0
2,105	28,6	-6,4
2,1055	27,4	-6,5
2,106	24,3	-6,1
2,1065	20,0	-5,1
2,107	15,9	-3,5
2,1075	13,1	-1,7
2,108	12,3	0,2
2,1085	13,3	2,0
2,109	15,6	3,7
2,1095	18,7	5,0
2,11	21,3	5,7
2,1105	21,8	5,5
2,111	20,1	5,3
2,1115	17,4	5,8
2,112	15,1	7,7
2,1125	13,3	10,6
2,113	12,3	13,6
2,1135	12,6	15,7
2,114	14,4	16,5
2,1145	17,4	16,1
2,115	20,9	14,8
2,1155	23,7	13,1
2,116	24,8	11,0
2,1165	23,9	8,7
2,117	21,3	6,1
2,1175	17,4	3,3
2,118	13,3	0,5
2,1185	10,3	-2,0
2,119	9,4	-4,1
2,1195	10,6	-5,4
2,12	13,4	-6,2
2,1205	17,5	-6,7
2,121	22,3	-7,1
2,1215	26,3	-7,8
2,122	27,5	-8,5
2,1225	25,0	-9,3
2,123	19,6	-10,3
2,1235	13,3	-11,2
2,124	8,4	-11,5
2,1245	6,5	-10,9
2,125	7,6	-9,5
2,1255	10,7	-7,3
2,126	14,9	-4,4
2,1265	19,2	-1,4
2,127	22,3	1,8
2,1275	23,7	5,1
2,128	24,0	8,4
2,1285	24,0	11,5
2,129	23,7	14,2
2,1295	23,2	16,4
2,13	23,3	18,3
2,1305	24,9	19,8
2,131	28,3	20,8
2,1315	32,6	20,8
2,132	36,3	19,6
2,1325	38,0	17,2
2,133	37,0	13,8
2,1335	34,1	9,6
2,134	30,8	5,1
2,1345	28,6	0,8
2,135	28,8	-2,4
2,1355	31,5	-4,4
2,136	35,7	-5,2
2,1365	39,4	-4,8
2,137	41,5	-3,4
2,1375	42,1	-1,4
2,138	41,4	0,7
2,1385	39,2	2,5
2,139	35,1	4,3
2,1395	29,0	6,4
2,14	21,6	9,0
2,1405	14,0	11,7
2,141	7,4	13,5
2,1415	2,3	13,6
2,142	-1,1	11,7
2,1425	-2,9	8,5
2,143	-3,5	5,0
2,1435	-3,4	2,1
2,144	-3,4	0,8
2,1445	-3,3	1,6
2,145	-2,7	4,2
2,1455	-1,5	7,7
2,146	0,1	11,7
2,1465	2,5	15,8
2,147	7,0	19,6
2,1475	14,0	23,0
2,148	22,9	25,9
2,1485	32,0	28,3
2,149	39,4	29,7
2,1495	43,5	29,7
2,15	43,4	27,7
2,1505	39,6	23,8
2,151	33,6	18,9
2,1515	27,1	13,8
2,152	21,7	8,7
2,1525	17,7	3,0
2,153	15,0	-3,4
2,1535	13,4	-9,6
2,154	13,1	-13,9
2,1545	13,7	-15,7
2,155	13,7	-15,8
2,1555	11,9	-15,8
2,156	8,6	-16,0
2,1565	5,3	-16,2
2,157	3,3	-15,4
2,1575	3,1	-13,9
2,158	4,5	-11,9
2,1585	6,7	-9,8
2,159	9,5	-7,8
2,1595	12,7	-6,1
2,16	15,8	-4,7
2,1605	17,8	-3,3
2,161	18,6	-1,9
2,1615	18,4	-0,2
2,162	17,8	1,8
2,1625	17,1	3,7
2,163	16,8	5,7
2,1635	18,0	7,5
2,164	21,1	9,2
2,1645	25,7	10,3
2,165	30,5	10,8
2,1655	34,1	10,8
2,166	35,6	10,7
2,1665	35,0	10,7
2,167	32,7	10,8
2,1675	29,3	10,9
2,168	25,7	11,0
2,1685	23,4	11,0
2,169	23,7	10,9
2,1695	25,8	10,4
2,17	27,9	8,8
2,1705	28,5	6,2
2,171	27,7	2,8
2,1715	26,4	-0,2
2,172	24,9	-1,8
2,1725	22,7	-1,9
2,173	19,3	-1,3
2,1735	15,2	-0,4
2,174	11,9	0,5
2,1745	10,7	1,6
2,175	11,4	2,1
2,1755	13,1	1,4
2,176	14,9	-0,7
2,1765	16,4	-3,1
2,177	17,0	-4,2
2,1775	16,6	-3,3
2,178	15,3	-1,2
2,1785	13,7	0,8
2,179	11,8	1,7
2,1795	10,3	1,7
2,18	10,1	1,5
2,1805	12,0	1,9
2,181	15,9	2,8
2,1815	20,6	3,8
2,182	24,6	4,5
2,1825	26,4	4,7
2,183	25,4	4,5
2,1835	22,0	4,2
2,184	17,1	3,7
2,1845	11,7	2,9
2,185	7,3	2,2
2,1855	5,2	1,2
2,186	6,0	-0,1
2,1865	8,8	-1,7
2,187	12,3	-3,5
2,1875	15,8	-5,3
2,188	18,1	-6,9
2,1885	18,3	-7,7
2,189	16,5	-7,3
2,1895	12,9	-5,9
2,19	8,8	-3,9
2,1905	5,7	-1,8
2,191	4,8	-0,2
2,1915	6,5	1,0
2,192	10,2	1,9
2,1925	15,2	2,8
2,193	20,2	3,9
2,1935	23,8	5,2
2,194	24,7	6,7
2,1945	23,2	8,2
2,195	20,6	9,4
2,1955	18,1	10,1
2,196	16,2	10,5
2,1965	15,5	11,2
2,197	16,2	12,4
2,1975	18,1	13,9
2,198	20,6	15,4
2,1985	23,1	16,3
2,199	24,9	16,6
2,1995	25,6	16,4
2,2	24,9	15,9
2,2005	22,8	15,0
2,201	19,3	13,9
2,2015	15,3	12,7
2,202	12,6	11,3
2,2025	11,8	9,5
2,203	12,6	7,3
2,2035	14,2	4,8
2,204	16,3	2,3
2,2045	18,4	0,1
2,205	19,7	-1,9
2,2055	19,2	-3,4
2,206	16,9	-4,4
2,2065	13,5	-4,8
2,207	10,4	-4,1
2,2075	9,3	-2,3
2,208	10,8	0,2
2,2085	14,2	2,4
2,209	18,0	3,7
2,2095	20,8	3,5
2,21	21,8	2,5
2,2105	20,5	1,7
2,211	17,7	2,0
2,2115	14,2	3,5
2,212	10,7	5,5
2,2125	8,0	7,3
2,213	7,3	8,5
2,2135	9,6	9,1
2,214	14,2	9,6
2,2145	20,2	10,1
2,215	26,7	10,7
2,2155	32,4	11,6
2,216	35,9	12,3
2,2165	35,8	12,4
2,217	32,2	11,8
2,2175	25,7	10,8
2,218	18,1	9,4
2,2185	12,0	7,7
2,219	8,8	5,7
2,2195	8,6	3,9
2,22	10,0	2,4
2,2205	13,1	1,4
2,221	17,9	0,7
2,2215	23,5	-0,2
2,222	27,8	-1,3
2,2225	28,9	-2,3
2,223	26,4	-2,4
2,2235	21,5	-1,3
2,224	16,2	0,6
2,2245	11,8	2,3
2,225	8,6	2,9
2,2255	7,1	2,4
2,226	7,6	1,9
2,2265	9,5	2,6
2,227	11,0	4,8
2,2275	10,1	7,8
2,228	6,6	10,3
2,2285	1,0	10,9
2,229	-6,0	9,9
2,2295	-12,3	8,3
2,23	-15,8	7,7
2,2305	-14,9	9,1
2,231	-10,3	12,0
2,2315	-3,9	14,4
2,232	2,3	14,9
2,2325	6,8	12,8
2,233	9,8	9,4
2,2335	11,7	5,9
2,234	12,7	3,3
2,2345	12,9	1,8
2,235	13,4	1,2
2,2355	15,4	0,9
2,236	19,2	0,1
2,2365	23,5	-1,9
2,237	27,3	-5,5
2,2375	29,7	-10,3
2,238	29,8	-15,5
2,2385	26,3	-20,1
2,239	19,5	-23,1
2,2395	10,9	-24,3
2,24	2,3	-23,8
2,2405	-4,6	-22,3
2,241	-8,4	-20,1
2,2415	-9,0	-17,8
2,242	-7,1	-15,4
2,2425	-3,8	-13,0
2,243	-0,3	-10,4
2,2435	1,9	-7,6
2,244	2,2	-4,8
2,2445	0,9	-2,0
2,245	-0,8	0,4
2,2455	-2,4	2,6
2,246	-3,3	4,8
2,2465	-2,8	6,9
2,247	-0,3	8,8
2,2475	3,9	10,0
2,248	8,9	10,3
2,2485	13,3	9,8
2,249	16,1	8,8
2,2495	16,8	7,8
2,25	15,6	6,8
2,2505	12,7	5,6
2,251	8,4	4,2
2,2515	4,0	2,4
2,252	0,9	0,1
2,2525	0,1	-2,7
2,253	1,4	-5,8
2,2535	4,1	-8,5
2,254	7,6	-10,3
2,2545	11,1	-11,4
2,255	13,0	-12,2
2,2555	12,2	-12,6
2,256	8,8	-12,5
2,2565	4,3	-11,6
2,257	0,6	-10,1
2,2575	-1,1	-8,4
2,258	-0,5	-6,9
2,2585	1,6	-5,4
2,259	4,5	-4,0
2,2595	7,4	-2,8
2,26	9,2	-2,3
2,2605	8,5	-2,8
2,261	5,1	-3,8
2,2615	0,2	-4,5
2,262	-4,3	-4,2
2,2625	-7,5	-2,7
2,263	-8,5	-0,3
2,2635	-7,2	2,5
2,264	-3,8	5,2
2,2645	1,2	7,3
2,265	6,3	8,6
2,2655	10,3	8,9
2,266	12,3	8,7
2,2665	12,0	8,3
2,267	10,1	7,7
2,2675	7,2	6,8
2,268	4,5	5,3
2,2685	3,3	3,3
2,269	4,5	1,1
2,2695	7,7	-1,7
2,27	11,4	-4,8
2,2705	14,5	-8,1
2,271	16,5	-10,5
2,2715	16,7	-11,7
2,272	14,8	-11,7
2,2725	10,9	-10,7
2,273	5,8	-9,2
2,2735	0,4	-7,5
2,274	-4,6	-5,8
2,2745	-8,4	-4,2
2,275	-10,9	-2,7
2,2755	-11,8	-0,9
2,276	-11,1	1,4
2,2765	-9,6	4,2
2,277	-8,6	6,7
2,2775	-9,3	8,3
2,278	-11,2	8,6
2,2785	-13,4	8,2
2,279	-15,3	7,6
2,2795	-15,7	7,6
2,28	-13,5	8,3
2,2805	-8,5	9,6
2,281	-1,2	10,8
2,2815	6,9	10,8
2,282	13,8	9,4
2,2825	18,4	7,0
2,283	20,9	4,5
2,2835	22,3	2,4
2,284	22,9	0,8
2,2845	21,9	-0,7
2,285	19,7	-2,5
2,2855	17,7	-5,1
2,286	16,7	-8,5
2,2865	16,4	-12,1
2,287	16,5	-15,0
2,2875	16,9	-16,6
2,288	17,0	-16,9
2,2885	16,0	-16,3
2,289	13,5	-15,1
2,2895	9,8	-13,5
2,29	6,1	-11,5
2,2905	3,3	-9,6
2,291	1,9	-7,9
2,2915	2,0	-6,4
2,292	3,2	-4,8
2,2925	5,2	-3,5
2,293	6,9	-2,9
2,2935	6,8	-3,2
2,294	3,9	-3,6
2,2945	-0,7	-3,3
2,295	-5,4	-1,8
2,2955	-9,1	0,8
2,296	-11,6	3,6
2,2965	-12,3	5,8
2,297	-10,9	6,5
2,2975	-7,7	5,8
2,298	-3,4	4,3
2,2985	0,9	2,8
2,299	4,8	2,0
2,2995	7,9	2,1
2,3	10,2	2,6
2,3005	11,6	3,3
2,301	12,3	3,6
2,3015	12,3	3,2
2,302	12,4	1,5
2,3025	13,0	-1,7
2,303	14,3	-5,8
2,3035	16,3	-9,6
2,304	18,3	-11,9
2,3045	20,2	-12,3
2,305	20,7	-10,9
2,3055	19,1	-8,5
2,306	15,3	-5,5
2,3065	10,0	-2,6
2,307	4,6	-0,2
2,3075	0,6	1,3
2,308	-1,3	1,8
2,3085	-1,3	1,8
2,309	0,0	1,7
2,3095	1,9	1,7
2,31	3,0	0,8
2,3105	2,1	-1,4
2,311	-1,3	-4,9
2,3115	-6,1	-8,9
2,312	-10,7	-11,7
2,3125	-13,4	-11,9
2,313	-12,9	-9,6
2,3135	-8,4	-5,9
2,314	-0,1	-2,4
2,3145	10,3	0,3
2,315	20,4	2,2
2,3155	28,0	3,2
2,316	32,1	3,8
2,3165	32,6	4,2
2,317	30,2	4,7
2,3175	25,7	5,0
2,318	20,1	4,7
2,3185	15,5	3,6
2,319	13,3	1,5
2,3195	12,8	-1,4
2,32	12,6	-4,8
2,3205	11,3	-8,3
2,321	8,6	-11,4
2,3215	4,2	-14,4
2,322	-1,7	-17,0
2,3225	-8,4	-19,1
2,323	-14,8	-20,1
2,3235	-19,5	-19,9
2,324	-21,7	-18,8
2,3245	-21,2	-17,2
2,325	-18,2	-15,3
2,3255	-13,4	-13,3
2,326	-7,7	-11,2
2,3265	-2,3	-9,5
2,327	1,3	-8,0
2,3275	2,4	-6,5
2,328	1,7	-4,8
2,3285	0,3	-2,8
2,329	-1,2	-0,5
2,3295	-2,2	1,9
2,33	-1,8	4,1
2,3305	0,4	5,8
2,331	4,2	6,6
2,3315	8,8	6,8
2,332	12,7	6,4
2,3325	14,9	6,0
2,333	15,2	5,9
2,3335	14,0	6,0
2,334	11,7	6,0
2,3345	8,9	5,9
2,335	7,1	5,7
2,3355	7,7	5,1
2,336	10,5	3,7
2,3365	13,6	0,7
2,337	14,8	-4,1
2,3375	13,8	-10,2
2,338	11,0	-16,2
2,3385	6,8	-20,7
2,339	1,5	-23,1
2,3395	-5,0	-23,4
2,34	-12,2	-22,1
2,3405	-18,7	-19,9
2,341	-23,1	-17,6
2,3415	-24,9	-15,7
2,342	-24,3	-14,1
2,3425	-21,5	-12,4
2,343	-17,3	-10,8
2,3435	-13,1	-8,9
2,344	-10,1	-6,9
2,3445	-8,5	-4,6
2,345	-7,7	-2,2
2,3455	-7,8	0,1
2,346	-8,6	2,3
2,3465	-9,3	4,2
2,347	-8,4	5,9
2,3475	-4,8	7,0
2,348	1,7	7,7
2,3485	9,9	7,9
2,349	17,6	8,0
2,3495	22,3	8,0
2,35	23,1	8,0
2,3505	20,7	7,7
2,351	16,9	6,6
2,3515	13,4	4,6
2,352	11,2	2,0
2,3525	10,5	-0,6
2,353	10,8	-2,8
2,3535	11,8	-4,4
2,354	13,3	-5,8
2,3545	15,2	-7,4
2,355	16,4	-9,1
2,3555	15,9	-10,5
2,356	12,9	-11,5
2,3565	7,7	-12,1
2,357	1,9	-12,8
2,3575	-1,8	-13,1
2,358	-2,4	-12,8
2,3585	-0,1	-11,8
2,359	4,2	-10,0
2,3595	9,5	-7,8
2,36	14,4	-5,1
2,3605	17,2	-2,1
2,361	17,2	1,0
2,3615	14,7	3,7
2,362	10,9	5,3
2,3625	6,8	5,9
2,363	3,6	5,9
2,3635	2,2	5,8
2,364	3,2	5,8
2,3645	6,1	5,4
2,365	9,8	4,5
2,3655	13,3	3,1
2,366	15,5	1,9
2,3665	15,5	0,8
2,367	13,6	-0,4
2,3675	10,2	-2,1
2,368	6,5	-4,1
2,3685	4,3	-6,5
2,369	4,5	-9,1
2,3695	6,5	-11,8
2,37	8,9	-14,5
2,3705	10,9	-16,8
2,371	12,1	-18,6
2,3715	12,3	-19,8
2,372	11,1	-20,3
2,3725	8,2	-20,0
2,373	4,0	-19,2
2,3735	-0,6	-18,0
2,374	-4,0	-17,2
2,3745	-5,3	-16,7
2,375	-4,3	-16,5
2,3755	-1,3	-16,1
2,376	3,2	-15,0
2,3765	7,6	-13,2
2,377	10,4	-10,6
2,3775	10,8	-7,3
2,378	9,3	-3,8
2,3785	6,9	-0,4
2,379	4,5	2,9
2,3795	2,4	6,0
2,38	1,8	8,5
2,3805	3,2	10,3
2,381	6,6	11,2
2,3815	11,3	11,5
2,382	16,1	11,6
2,3825	19,6	11,6
2,383	20,8	11,6
2,3835	19,7	11,5
2,384	16,9	11,5
2,3845	13,4	11,7
2,385	10,5	11,8
2,3855	9,5	11,7
2,386	10,6	10,6
2,3865	12,6	8,4
2,387	14,6	5,1
2,3875	16,2	0,9
2,388	16,8	-4,5
2,3885	15,1	-10,6
2,389	10,2	-16,7
2,3895	2,5	-21,4
2,39	-6,1	-24,2
2,3905	-13,1	-24,8
2,391	-17,3	-23,5
2,3915	-18,7	-21,0
2,392	-17,9	-18,4
2,3925	-15,8	-16,5
2,393	-13,0	-15,5
2,3935	-10,0	-14,7
2,394	-6,8	-13,3
2,3945	-2,6	-10,5
2,395	2,5	-6,6
2,3955	7,5	-2,3
2,396	11,1	1,7
2,3965	13,3	4,9
2,397	15,0	7,2
2,3975	17,3	9,0
2,398	20,5	10,6
2,3985	23,8	11,8
2,399	25,2	12,7
2,3995	23,7	13,4
2,4	19,5	13,9
2,4005	13,6	14,1
2,401	7,4	13,4
2,4015	2,1	11,8
2,402	-1,2	9,3
2,4025	-2,3	6,1
2,403	-2,1	2,8
2,4035	-1,7	-0,5
2,404	-1,6	-3,8
2,4045	-2,1	-7,8
2,405	-3,8	-13,1
2,4055	-7,3	-19,6
2,406	-12,2	-25,9
2,4065	-16,8	-29,8
2,407	-19,5	-30,1
2,4075	-19,1	-27,5
2,408	-15,9	-23,6
2,4085	-11,2	-19,5
2,409	-5,8	-15,5
2,4095	-0,7	-11,5
2,41	3,3	-7,3
2,4105	5,2	-3,0
2,411	4,8	1,3
2,4115	3,3	5,3
2,412	1,8	9,0
2,4125	0,9	12,5
2,413	1,1	15,6
2,4135	3,3	18,4
2,414	7,6	20,6
2,4145	13,6	22,1
2,415	19,8	22,6
2,4155	24,4	21,6
2,416	25,6	18,4
2,4165	22,2	12,8
2,417	14,6	4,9
2,4175	4,1	-3,9
2,418	-6,7	-11,5
2,4185	-14,8	-16,2
2,419	-18,3	-17,4
2,4195	-17,5	-15,8
2,42	-14,5	-13,0
2,4205	-11,3	-10,7
2,421	-9,3	-10,0
2,4215	-9,3	-11,1
2,422	-11,9	-13,3
2,4225	-16,3	-15,4
2,423	-21,6	-16,4
2,4235	-25,9	-15,9
2,424	-27,8	-14,4
2,4245	-26,3	-12,4
2,425	-21,6	-10,3
2,4255	-14,0	-7,6
2,426	-4,8	-4,4
2,4265	3,5	-1,2
2,427	8,6	1,3
2,4275	9,5	3,1
2,428	7,4	4,5
2,4285	4,2	6,0
2,429	0,9	7,7
2,4295	-1,7	9,2
2,43	-2,8	9,8
2,4305	-1,7	8,6
2,431	2,2	5,6
2,4315	8,2	1,5
2,432	14,3	-2,4
2,4325	18,5	-5,0
2,433	19,7	-6,2
2,4335	18,3	-6,3
2,434	15,3	-6,2
2,4345	11,2	-6,3
2,435	7,7	-6,7
2,4355	6,1	-7,4
2,436	7,0	-8,1
2,4365	9,4	-8,8
2,437	12,3	-9,5
2,4375	15,0	-10,2
2,438	16,7	-10,8
2,4385	16,6	-11,0
2,439	14,2	-10,6
2,4395	9,8	-9,2
2,44	5,0	-7,0
2,4405	1,3	-4,9
2,441	-0,2	-3,6
2,4415	0,2	-3,1
2,442	1,8	-2,9
2,4425	4,0	-2,5
2,443	5,9	-2,1
2,4435	6,4	-1,9
2,444	4,8	-2,0
2,4445	1,7	-1,5
2,445	-1,8	0,6
2,4455	-4,7	4,0
2,446	-6,9	7,8
2,4465	-8,2	10,8
2,447	-7,9	12,0
2,4475	-5,8	11,7
2,448	-2,1	10,5
2,4485	2,2	9,0
2,449	5,3	7,5
2,4495	6,3	6,2
2,45	5,5	5,3
2,4505	3,6	5,1
2,451	1,6	4,8
2,4515	-0,1	3,8
2,452	-1,0	1,1
2,4525	-1,0	-2,8
2,453	-0,2	-6,8
2,4535	0,9	-9,8
2,454	1,9	-11,5
2,4545	2,2	-12,3
2,455	1,3	-12,5
2,4555	-1,2	-12,3
2,456	-4,8	-11,7
2,4565	-8,8	-11,0
2,457	-12,3	-10,3
2,4575	-14,3	-10,0
2,458	-14,5	-10,4
2,4585	-12,9	-11,3
2,459	-10,2	-11,9
2,4595	-6,7	-11,8
2,46	-3,0	-10,7
2,4605	-0,2	-8,8
2,461	1,3	-6,1
2,4615	2,1	-2,8
2,462	2,7	0,8
2,4625	3,0	4,3
2,463	3,3	7,2
2,4635	3,8	9,1
2,464	5,0	9,9
2,4645	7,6	9,8
2,465	11,0	9,2
2,4655	14,3	8,5
2,466	16,3	8,2
2,4665	16,5	8,4
2,467	15,0	8,6
2,4675	11,9	8,3
2,468	8,3	7,1
2,4685	5,3	5,0
2,469	4,6	2,3
2,4695	5,9	-0,7
2,47	8,3	-3,2
2,4705	10,9	-5,0
2,471	13,1	-6,1
2,4715	13,7	-7,0
2,472	11,8	-8,3
2,4725	7,0	-10,4
2,473	0,1	-12,9
2,4735	-6,8	-14,6
2,474	-11,7	-14,3
2,4745	-13,2	-12,1
2,475	-11,5	-8,7
2,4755	-7,5	-4,8
2,476	-2,2	-1,3
2,4765	3,0	1,7
2,477	6,6	4,3
2,4775	7,4	6,7
2,478	5,7	8,6
2,4785	2,0	10,0
2,479	-2,9	11,3
2,4795	-7,3	12,6
2,48	-9,8	14,1
2,4805	-9,3	15,0
2,481	-5,5	14,7
2,4815	1,3	13,2
2,482	9,7	10,8
2,4825	17,5	8,4
2,483	23,0	6,5
2,4835	25,4	5,3
2,484	25,2	4,8
2,4845	23,4	5,2
2,485	21,8	6,4
2,4855	22,0	7,9
2,486	24,2	9,0
2,4865	27,3	9,6
2,487	30,2	9,9
2,4875	32,1	10,1
2,488	32,3	10,4
2,4885	30,0	10,5
2,489	25,8	10,0
2,4895	20,4	8,4
2,49	14,5	5,7
2,4905	8,5	2,4
2,491	3,3	-1,0
2,4915	-0,8	-4,0
2,492	-3,1	-6,0
2,4925	-3,4	-6,9
2,493	-2,3	-6,8
2,4935	-1,4	-6,7
2,494	-2,4	-7,4
2,4945	-5,1	-9,2
2,495	-8,3	-11,7
2,4955	-11,0	-13,3
2,496	-12,2	-13,1
2,4965	-11,3	-10,8
2,497	-7,9	-7,5
2,4975	-2,8	-4,1
2,498	3,0	-1,8
2,4985	7,9	-0,7
2,499	10,8	-0,6
2,4995	11,3	-1,2
2,5	9,9	-1,9
2,5005	7,3	-2,5
2,501	4,4	-3,0
2,5015	2,3	-3,3
2,502	2,0	-3,5
2,5025	3,9	-3,8
2,503	7,0	-4,3
2,5035	10,1	-4,8
2,504	12,5	-5,4
2,5045	14,4	-6,1
2,505	15,6	-6,8
2,5055	15,3	-7,5
2,506	13,3	-7,9
2,5065	10,1	-8,3
2,507	7,1	-8,6
2,5075	5,6	-9,0
2,508	5,9	-9,4
2,5085	7,4	-9,8
2,509	9,9	-10,3
2,5095	13,3	-10,6
2,51	16,6	-10,5
2,5105	18,7	-9,5
2,511	19,1	-7,1
2,5115	18,7	-3,3
2,512	18,4	1,5
2,5125	19,0	7,1
2,513	21,3	13,1
2,5135	25,7	18,8
2,514	31,6	23,3
2,5145	37,8	26,1
2,515	42,8	27,4
2,5155	45,6	27,6
2,516	45,5	26,5
2,5165	42,6	24,0
2,517	37,3	20,0
2,5175	30,8	14,8
2,518	24,2	8,9
2,5185	19,2	2,8
2,519	16,6	-3,5
2,5195	15,9	-9,8
2,52	15,8	-15,3
2,5205	15,4	-19,3
2,521	14,8	-21,5
2,5215	13,4	-22,0
2,522	10,8	-21,3
2,5225	6,8	-19,8
2,523	1,6	-17,8
2,5235	-3,4	-15,6
2,524	-7,1	-13,8
2,5245	-8,5	-12,6
2,525	-8,1	-12,1
2,5255	-6,0	-11,9
2,526	-2,7	-11,5
2,5265	0,5	-10,7
2,527	2,1	-9,2
2,5275	1,8	-7,1
2,528	0,4	-4,4
2,5285	-0,6	-1,4
2,529	-0,4	1,7
2,5295	1,3	4,3
2,53	4,3	6,1
2,5305	9,1	6,7
2,531	15,4	6,2
2,5315	22,2	5,1
2,532	28,0	3,4
2,5325	30,9	1,6
2,533	30,6	0,3
2,5335	27,8	-0,4
2,534	23,6	-0,6
2,5345	19,6	-0,6
2,535	17,2	-0,5
2,5355	17,5	-0,4
2,536	20,0	-0,6
2,5365	23,2	-1,2
2,537	25,8	-2,4
2,5375	27,7	-3,8
2,538	29,0	-5,2
2,5385	29,1	-5,9
2,539	27,6	-5,9
2,5395	24,7	-5,3
2,54	21,5	-4,2
2,5405	19,2	-2,9
2,541	18,2	-2,0
2,5415	18,4	-2,2
2,542	19,3	-3,6
2,5425	20,6	-5,4
2,543	22,3	-6,4
2,5435	23,4	-6,0
2,544	23,0	-4,8
2,5445	20,7	-3,3
2,545	17,2	-2,2
2,5455	13,2	-1,3
2,546	9,5	-0,2
2,5465	7,5	1,3
2,547	8,1	2,9
2,5475	11,2	4,2
2,548	15,8	4,8
2,5485	20,2	4,9
2,549	22,7	4,6
2,5495	22,7	4,0
2,55	20,5	3,4
2,5505	17,0	2,7
2,551	12,9	1,7
2,5515	9,7	0,4
2,552	8,5	-1,6
2,5525	9,6	-4,3
2,553	11,9	-7,3
2,5535	14,4	-10,3
2,554	16,5	-12,6
2,5545	17,8	-13,9
2,555	17,7	-14,5
2,5555	15,6	-14,2
2,556	11,5	-13,1
2,5565	6,5	-11,5
2,557	2,0	-9,6
2,5575	-0,3	-7,8
2,558	0,5	-6,3
2,5585	4,1	-4,7
2,559	9,6	-3,0
2,5595	15,8	-1,2
2,56	20,7	0,8
2,5605	22,9	2,7
2,561	22,4	4,3
2,5615	20,3	5,3
2,562	17,5	5,2
2,5625	15,0	4,3
2,563	14,6	3,5
2,5635	18,3	3,3
2,564	26,8	3,8
2,5645	38,1	4,7
2,565	48,7	5,3
2,5655	55,8	5,6
2,566	58,4	5,6
2,5665	57,2	5,7
2,567	53,1	6,0
2,5675	46,8	6,3
2,568	39,7	6,5
2,5685	33,5	6,3
2,569	29,5	5,5
2,5695	27,7	3,8
2,57	27,0	1,4
2,5705	26,3	-1,2
2,571	24,4	-3,8
2,5715	20,5	-6,6
2,572	13,9	-9,9
2,5725	4,9	-13,5
2,573	-5,0	-16,5
2,5735	-13,5	-18,0
2,574	-18,6	-17,5
2,5745	-19,3	-15,2
2,575	-16,4	-11,9
2,5755	-11,1	-8,4
2,576	-4,7	-5,4
2,5765	1,5	-3,2
2,577	6,1	-1,4
2,5775	8,3	0,2
2,578	8,6	1,8
2,5785	8,1	3,8
2,579	7,7	6,3
2,5795	8,3	9,1
2,58	10,6	12,2
2,5805	14,6	14,9
2,581	19,5	16,7
2,5815	24,1	16,8
2,582	27,4	15,4
2,5825	29,1	13,2
2,583	29,4	10,9
2,5835	29,0	9,3
2,584	28,2	8,1
2,5845	27,4	6,9
2,585	27,7	5,6
2,5855	29,8	3,9
2,586	33,0	2,0
2,5865	36,2	0,2
2,587	38,3	-1,7
2,5875	38,6	-4,3
2,588	37,1	-7,8
2,5885	33,5	-11,8
2,589	28,4	-15,3
2,5895	22,7	-17,1
2,59	17,7	-16,6
2,5905	14,8	-14,0
2,591	14,5	-9,9
2,5915	16,4	-5,5
2,592	19,5	-1,8
2,5925	22,8	0,5
2,593	25,2	1,3
2,5935	25,7	1,2
2,594	23,8	1,0
2,5945	20,3	1,2
2,595	16,7	1,9
2,5955	13,9	3,3
2,596	12,3	5,3
2,5965	12,3	7,4
2,597	14,1	8,6
2,5975	17,5	8,2
2,598	21,7	6,3
2,5985	25,5	4,4
2,599	27,9	3,6
2,5995	28,4	4,5
2,6	26,8	6,4
2,6005	23,4	8,6
2,601	18,5	10,3
2,6015	13,6	11,3
2,602	10,8	11,2
2,6025	10,8	10,1
2,603	12,6	8,2
2,6035	14,6	5,5
2,604	16,1	2,1
2,6045	16,7	-1,8
2,605	15,9	-5,8
2,6055	13,4	-9,0
2,606	9,5	-10,8
2,6065	4,9	-11,3
2,607	1,3	-11,1
2,6075	-0,3	-11,3
2,608	0,4	-12,3
2,6085	3,1	-13,7
2,609	8,1	-14,2
2,6095	14,8	-13,2
2,61	21,2	-10,8
2,6105	25,6	-7,5
2,611	27,5	-4,0
2,6115	27,8	-0,7
2,612	26,8	2,1
2,6125	24,8	4,5
2,613	23,1	6,7
2,6135	23,0	8,6
2,614	25,2	10,0
2,6145	29,3	10,6
2,615	33,6	9,9
2,6155	36,3	7,8
2,616	35,8	4,6
2,6165	32,5	0,9
2,617	27,3	-2,6
2,6175	22,0	-5,3
2,618	18,5	-6,9
2,6185	18,2	-7,6
2,619	21,0	-7,8
2,6195	24,9	-8,0
2,62	27,9	-8,3
2,6205	29,3	-8,9
2,621	29,5	-9,9
2,6215	28,7	-11,1
2,622	26,5	-12,1
2,6225	23,0	-12,5
2,623	18,7	-12,2
2,6235	14,8	-11,1
2,624	12,6	-9,6
2,6245	12,6	-7,9
2,625	14,4	-6,4
2,6255	17,3	-5,0
2,626	20,5	-3,6
2,6265	23,3	-2,1
2,627	24,7	-0,4
2,6275	24,4	1,1
2,628	23,4	2,3
2,6285	22,7	2,9
2,629	22,3	3,1
2,6295	22,4	3,6
2,63	23,7	5,0
2,6305	26,6	7,3
2,631	30,6	10,0
2,6315	34,8	12,3
2,632	38,3	14,2
2,6325	40,3	15,6
2,633	41,2	17,0
2,6335	41,0	18,2
2,634	40,1	19,0
2,6345	38,3	19,3
2,635	36,4	18,8
2,6355	35,7	17,3
2,636	36,6	14,4
2,6365	38,1	9,8
2,637	38,9	3,4
2,6375	38,4	-4,3
2,638	36,3	-12,1
2,6385	32,5	-18,9
2,639	27,0	-24,1
2,6395	20,4	-27,2
2,64	14,4	-27,5
2,6405	11,2	-24,9
2,641	11,6	-20,2
2,6415	14,9	-15,0
2,642	19,5	-10,6
2,6425	24,3	-7,7
2,643	28,3	-6,2
2,6435	30,6	-5,4
2,644	30,9	-4,6
2,6445	29,8	-2,9
2,645	28,4	-0,3
2,6455	27,4	2,5
2,646	27,1	4,9
2,6465	27,9	5,9
2,647	29,5	5,5
2,6475	31,9	4,4
2,648	35,5	3,6
2,6485	40,5	3,8
2,649	46,1	4,6
2,6495	50,8	5,5
2,65	53,0	5,9
2,6505	52,1	6,0
2,651	48,4	5,8
2,6515	43,9	5,7
2,652	40,5	5,6
2,6525	39,1	5,7
2,653	39,3	5,9
2,6535	39,8	6,4
2,654	39,7	7,3
2,6545	38,1	7,9
2,655	33,6	7,2
2,6555	25,4	4,4
2,656	14,1	-0,4
2,6565	1,8	-5,9
2,657	-8,7	-10,5
2,6575	-15,3	-13,2
2,658	-17,4	-13,7
2,6585	-15,8	-12,1
2,659	-11,6	-9,1
2,6595	-6,3	-5,6
2,66	-1,7	-2,4
2,6605	0,8	-0,1
2,661	1,2	1,5
2,6615	0,4	2,5
2,662	-0,8	3,2
2,6625	-2,0	3,4
2,663	-2,3	3,2
2,6635	-0,6	3,1
2,664	3,9	3,5
2,6645	10,7	4,8
2,665	18,2	6,7
2,6655	24,8	9,1
2,666	28,9	11,8
2,6665	30,3	14,5
2,667	29,9	17,4
2,6675	28,5	20,2
2,668	27,2	22,2
2,6685	26,8	22,6
2,669	27,8	20,9
2,6695	29,6	17,4
2,67	31,5	12,9
2,6705	32,8	8,2
2,671	32,8	3,5
2,6715	30,6	-1,3
2,672	25,6	-5,7
2,6725	18,5	-9,3
2,673	10,7	-11,7
2,6735	3,6	-13,9
2,674	-1,1	-16,7
2,6745	-2,5	-19,6
2,675	-0,4	-21,0
2,6755	4,8	-19,4
2,676	11,4	-15,0
2,6765	17,5	-9,3
2,677	21,4	-3,5
2,6775	22,5	1,7
2,678	21,8	6,3
2,6785	20,5	10,2
2,679	19,3	13,3
2,6795	18,8	15,8
2,68	20,3	17,5
2,6805	24,2	18,3
2,681	29,8	17,8
2,6815	35,3	15,7
2,682	38,6	11,8
2,6825	38,5	6,5
2,683	35,4	0,7
2,6835	30,6	-4,2
2,684	25,3	-7,1
2,6845	20,8	-8,0
2,685	18,2	-7,8
2,6855	17,8	-7,8
2,686	19,6	-8,4
2,6865	22,4	-9,3
2,687	25,4	-10,3
2,6875	27,8	-11,4
2,688	29,1	-12,8
2,6885	28,6	-14,1
2,689	26,3	-14,9
2,6895	22,5	-15,0
2,69	18,3	-14,6
2,6905	14,7	-14,0
2,691	12,8	-13,7
2,6915	13,1	-13,5
2,692	15,2	-12,8
2,6925	18,6	-11,2
2,693	22,3	-8,7
2,6935	24,6	-5,5
2,694	24,8	-2,1
2,6945	23,6	1,6
2,695	22,0	5,3
2,6955	20,8	8,8
2,696	20,2	12,0
2,6965	21,0	14,7
2,697	23,9	17,0
2,6975	29,1	18,6
2,698	35,5	19,3
2,6985	41,1	18,6
2,699	43,8	16,6
2,6995	43,3	13,8
2,7	40,3	10,9
2,7005	35,7	8,8
2,701	30,5	7,7
2,7015	25,7	7,2
2,702	22,7	6,2
2,7025	21,8	3,8
2,703	21,7	-0,3
2,7035	20,8	-5,5
2,704	19,2	-10,3
2,7045	17,5	-13,2
2,705	15,6	-14,1
2,7055	13,3	-13,6
2,706	10,5	-12,5
2,7065	7,4	-11,3
2,707	5,2	-10,0
2,7075	4,5	-8,8
2,708	5,8	-7,6
2,7085	8,8	-6,4
2,709	13,2	-5,0
2,7095	18,6	-3,8
2,71	23,4	-3,3
2,7105	26,0	-3,8
2,711	26,1	-4,4
2,7115	25,1	-4,1
2,712	24,8	-2,5
2,7125	25,5	0,2
2,713	26,6	3,3
2,7135	28,0	5,8
2,714	29,8	7,2
2,7145	32,2	7,4
2,715	34,8	6,8
2,7155	36,5	5,8
2,716	36,4	4,5
2,7165	34,5	3,4
2,717	31,1	2,6
2,7175	26,9	2,3
2,718	23,0	2,4
2,7185	20,8	2,8
2,719	21,1	3,0
2,7195	23,3	2,5
2,72	26,7	1,5
2,7205	30,3	0,2
2,721	33,3	-1,3
2,7215	34,4	-2,7
2,722	32,9	-3,8
2,7225	29,0	-4,3
2,723	23,9	-4,3
2,7235	19,3	-4,1
2,724	16,0	-4,3
2,7245	14,6	-5,1
2,725	15,3	-6,2
2,7255	18,7	-6,6
2,726	24,7	-5,2
2,7265	31,8	-2,1
2,727	37,2	2,1
2,7275	39,5	6,6
2,728	39,4	10,8
2,7285	38,2	14,6
2,729	37,0	18,1
2,7295	36,4	21,3
2,73	36,8	23,6
2,7305	38,3	24,0
2,731	40,6	22,1
2,7315	42,8	18,4
2,732	43,8	14,2
2,7325	42,7	10,4
2,733	40,0	7,5
2,7335	36,3	5,2
2,734	31,9	3,1
2,7345	27,2	1,3
2,735	23,7	-0,0
2,7355	22,7	-0,9
2,736	23,9	-1,8
2,7365	26,0	-3,1
2,737	28,2	-4,9
2,7375	30,5	-6,8
2,738	32,5	-8,4
2,7385	33,3	-9,6
2,739	31,8	-10,3
2,7395	27,9	-10,1
2,74	22,7	-8,9
2,7405	18,1	-7,0
2,741	15,5	-4,9
2,7415	15,4	-3,2
2,742	17,0	-1,7
2,7425	19,8	-0,2
2,743	22,6	1,5
2,7435	24,2	3,3
2,744	24,1	5,1
2,7445	22,6	7,1
2,745	20,7	9,2
2,7455	19,0	11,0
2,746	18,7	12,4
2,7465	21,5	13,3
2,747	28,0	13,7
2,7475	37,3	13,6
2,748	47,2	13,0
2,7485	55,3	12,0
2,749	59,5	11,0
2,7495	59,3	10,0
2,75	55,5	8,6
2,7505	49,5	6,5
2,751	42,8	3,8
2,7515	37,3	0,9
2,752	34,1	-1,9
2,7525	33,1	-4,4
2,753	32,8	-6,6
2,7535	32,1	-8,2
2,754	30,7	-9,6
2,7545	28,3	-11,2
2,755	24,5	-13,1
2,7555	19,2	-14,7
2,756	12,8	-15,4
2,7565	6,8	-14,6
2,757	2,8	-12,2
2,7575	2,2	-8,8
2,758	4,9	-5,1
2,7585	10,2	-1,6
2,759	16,9	1,8
2,7595	23,7	5,3
2,76	28,5	8,5
2,7605	30,2	11,3
2,761	29,1	13,2
2,7615	26,7	14,4
2,762	24,3	15,0
2,7625	22,6	15,4
2,763	22,3	15,7
2,7635	23,8	15,7
2,764	27,1	15,2
2,7645	31,9	14,3
2,765	37,3	13,2
2,7655	41,6	11,8
2,766	43,8	10,0
2,7665	43,4	7,6
2,767	41,1	5,0
2,7675	37,9	3,0
2,768	35,2	1,9
2,7685	34,6	1,2
2,769	36,3	0,2
2,7695	38,8	-1,8
2,77	40,7	-5,0
2,7705	41,3	-8,9
2,771	41,0	-12,8
2,7715	39,5	-16,0
2,772	36,7	-17,4
2,7725	32,9	-16,9
2,773	28,6	-14,7
2,7735	24,7	-11,9
2,774	21,9	-9,4
2,7745	21,0	-7,8
2,775	22,1	-6,7
2,7755	25,1	-5,5
2,776	29,5	-3,5
2,7765	33,8	-0,7
2,777	36,4	2,8
2,7775	36,4	6,9
2,778	34,1	11,2
2,7785	30,1	15,0
2,779	25,2	17,8
2,7795	20,8	19,8
2,78	18,7	21,2
2,7805	19,6	21,9
2,781	23,2	21,8
2,7815	28,4	21,1
2,782	33,5	20,1
2,7825	36,8	18,8
2,783	37,3	17,1
2,7835	35,1	14,3
2,784	31,1	9,8
2,7845	26,6	4,2
2,785	23,4	-2,0
2,7855	23,1	-7,9
2,786	25,6	-12,8
2,7865	30,1	-15,9
2,787	35,8	-16,6
2,7875	41,8	-15,3
2,788	46,4	-13,0
2,7885	48,0	-10,9
2,789	46,2	-9,6
2,7895	42,2	-9,4
2,79	37,5	-10,3
2,7905	33,4	-12,0
2,791	30,9	-13,6
2,7915	30,2	-14,0
2,792	31,3	-12,6
2,7925	33,8	-10,1
2,793	36,3	-7,5
2,7935	36,9	-5,7
2,794	34,6	-4,5
2,7945	30,3	-3,1
2,795	25,5	-1,2
2,7955	21,7	0,9
2,796	19,3	2,9
2,7965	18,9	4,5
2,797	20,7	5,4
2,7975	24,4	5,3
2,798	29,2	4,3
2,7985	33,9	2,8
2,799	37,4	1,8
2,7995	39,5	2,0
2,8	40,2	3,6
2,8005	39,8	5,7
2,801	38,1	7,6
2,8015	36,3	8,8
2,802	36,0	9,4
2,8025	37,9	9,4
2,803	41,3	8,3
2,8035	44,3	5,9
2,804	45,6	2,5
2,8045	44,3	-1,5
2,805	40,1	-5,4
2,8055	33,7	-9,2
2,806	26,0	-12,9
2,8065	18,3	-16,4
2,807	12,0	-19,4
2,8075	8,2	-21,1
2,808	7,3	-21,0
2,8085	9,2	-18,8
2,809	13,8	-15,0
2,8095	20,4	-10,3
2,81	27,0	-5,4
2,8105	31,0	-0,8
2,811	31,7	3,5
2,8115	30,3	7,4
2,812	28,2	10,7
2,8125	26,6	13,3
2,813	26,3	15,2
2,8135	27,5	16,6
2,814	30,5	17,6
2,8145	34,7	18,4
2,815	39,2	19,3
2,8155	42,8	20,1
2,816	44,1	20,7
2,8165	42,3	20,5
2,817	37,8	19,3
2,8175	31,6	17,0
2,818	26,0	13,7
2,8185	23,6	10,0
2,819	25,2	6,6
2,8195	29,5	3,9
2,82	34,5	1,8
2,8205	38,9	-0,0
2,821	42,2	-2,0
2,8215	43,0	-4,6
2,822	40,5	-7,8
2,8225	34,9	-11,0
2,823	28,2	-13,4
2,8235	22,8	-14,8
2,824	20,2	-15,5
2,8245	20,2	-16,1
2,825	21,4	-17,1
2,8255	23,0	-18,1
2,826	24,8	-18,6
2,8265	26,7	-18,3
2,827	27,7	-16,9
2,8275	27,4	-14,3
2,828	26,3	-10,5
2,8285	25,3	-5,8
2,829	24,6	-0,7
2,8295	24,7	3,8
2,83	26,2	7,4
2,8305	29,6	9,5
2,831	35,0	10,2
2,8315	41,3	9,6
2,832	47,5	8,5
2,8325	52,8	7,4
2,833	57,3	7,1
2,8335	60,8	7,4
2,834	62,5	8,1
2,8345	62,2	8,3
2,835	60,3	6,9
2,8355	58,0	3,4
2,836	55,7	-1,8
2,8365	53,1	-7,6
2,837	50,2	-12,6
2,8375	46,8	-16,2
2,838	42,5	-18,3
2,8385	36,4	-19,1
2,839	27,9	-19,0
2,8395	17,5	-18,3
2,84	6,6	-17,5
2,8405	-3,2	-16,7
2,841	-10,0	-16,0
2,8415	-13,2	-14,9
2,842	-12,6	-13,2
2,8425	-9,1	-10,9
2,843	-4,0	-8,3
2,8435	0,7	-5,2
2,844	3,8	-1,9
2,8445	5,5	1,4
2,845	6,8	4,4
2,8455	8,4	6,9
2,846	11,3	9,1
2,8465	16,5	11,5
2,847	24,6	13,8
2,8475	34,7	15,6
2,848	44,6	16,2
2,8485	52,5	15,4
2,849	57,4	13,6
2,8495	58,8	11,5
2,85	56,9	9,4
2,8505	52,3	7,4
2,851	46,4	5,4
2,8515	41,1	3,6
2,852	38,3	1,6
2,8525	38,5	-0,4
2,853	40,6	-2,5
2,8535	42,9	-4,9
2,854	44,3	-8,1
2,8545	44,2	-11,8
2,855	42,2	-15,0
2,8555	38,4	-16,3
2,856	33,5	-15,2
2,8565	28,3	-12,2
2,857	23,8	-8,5
2,8575	20,7	-5,4
2,858	19,1	-3,5
2,8585	19,1	-2,3
2,859	21,2	-0,8
2,8595	24,7	1,6
2,86	28,4	4,6
2,8605	30,7	7,8
2,861	31,2	10,6
2,8615	30,3	12,9
2,862	28,8	14,5
2,8625	27,3	15,3
2,863	26,4	15,1
2,8635	26,9	13,4
2,864	29,4	10,9
2,8645	34,0	8,8
2,865	39,8	8,0
2,8655	44,5	8,5
2,866	46,5	9,5
2,8665	45,3	9,8
2,867	41,7	8,3
2,8675	36,9	5,1
2,868	32,2	0,7
2,8685	29,0	-4,5
2,869	28,2	-9,5
2,8695	29,5	-13,4
2,87	31,9	-15,5
2,8705	34,4	-16,1
2,871	35,8	-16,1
2,8715	34,9	-16,2
2,872	31,6	-16,5
2,8725	26,3	-16,9
2,873	20,5	-16,7
2,8735	15,6	-15,7
2,874	12,9	-14,0
2,8745	12,3	-12,0
2,875	13,4	-9,7
2,8755	15,8	-7,0
2,876	19,0	-3,7
2,8765	21,8	0,3
2,877	23,2	4,7
2,8775	22,6	9,0
2,878	21,1	12,9
2,8785	19,6	15,9
2,879	18,6	18,2
2,8795	18,8	20,2
2,88	21,1	22,1
2,8805	25,7	24,0
2,881	31,9	25,3
2,8815	38,1	24,9
2,882	42,0	22,0
2,8825	42,5	17,1
2,883	40,1	11,8
2,8835	36,6	7,8
2,884	33,3	5,7
2,8845	30,6	5,0
2,885	29,3	5,1
2,8855	29,8	5,2
2,886	31,6	4,3
2,8865	33,4	1,3
2,887	34,2	-3,9
2,8875	33,6	-10,7
2,888	31,5	-17,1
2,8885	28,0	-21,7
2,889	23,3	-23,5
2,8895	18,5	-22,5
2,89	15,0	-19,3
2,8905	13,9	-14,6
2,891	15,2	-9,6
2,8915	18,1	-5,2
2,892	21,5	-2,2
2,8925	24,8	-1,0
2,893	26,9	-1,0
2,8935	27,3	-1,0
2,894	26,0	-0,0
2,8945	23,8	1,9
2,895	21,0	4,3
2,8955	17,6	6,7
2,896	14,1	8,4
2,8965	11,6	9,3
2,897	10,9	9,3
2,8975	12,2	8,3
2,898	14,6	6,2
2,8985	16,7	3,5
2,899	17,3	0,5
2,8995	16,1	-2,4
2,9	13,5	-4,8
2,9005	10,5	-6,5
2,901	7,7	-7,6
2,9015	6,1	-8,3
2,902	6,8	-8,7
2,9025	9,7	-8,8
2,903	13,8	-8,7
2,9035	18,1	-8,3
2,904	22,1	-7,8
2,9045	25,5	-7,0
2,905	27,2	-6,3
2,9055	26,6	-5,5
2,906	23,8	-4,9
2,9065	19,8	-4,3
2,907	16,2	-3,8
2,9075	14,4	-3,0
2,908	15,1	-2,1
2,9085	17,9	-0,8
2,909	22,3	0,3
2,9095	27,1	0,7
2,91	30,3	0,1
2,9105	30,3	-0,7
2,911	27,1	-1,0
2,9115	22,2	-0,8
2,912	17,2	-0,2
2,9125	13,3	0,5
2,913	11,8	1,5
2,9135	13,1	2,5
2,914	16,9	2,9
2,9145	22,0	2,5
2,915	27,0	1,6
2,9155	30,3	0,5
2,916	31,3	-0,5
2,9165	30,4	-1,4
2,917	27,8	-2,4
2,9175	23,7	-4,1
2,918	19,0	-6,6
2,9185	15,2	-9,7
2,919	13,7	-12,8
2,9195	13,8	-15,2
2,92	14,4	-16,8
2,9205	14,9	-17,8
2,921	14,8	-18,2
2,9215	13,5	-18,2
2,922	10,7	-17,7
2,9225	6,5	-16,6
2,923	1,8	-15,1
2,9235	-1,9	-13,1
2,924	-3,8	-11,1
2,9245	-3,6	-9,3
2,925	-1,5	-7,7
2,9255	1,9	-6,2
2,926	5,9	-4,4
2,9265	8,9	-2,3
2,927	9,8	0,5
2,9275	9,0	4,5
2,928	8,1	9,5
2,9285	8,3	14,8
2,929	10,1	19,6
2,9295	13,4	23,6
2,93	18,4	26,1
2,9305	24,8	26,8
2,931	32,3	25,6
2,9315	40,4	23,6
2,932	48,7	21,7
2,9325	56,1	20,4
2,933	61,5	19,5
2,9335	63,8	17,6
2,934	62,3	13,3
2,9345	57,3	6,8
2,935	51,4	0,1
2,9355	47,5	-4,9
2,936	46,1	-7,3
2,9365	45,9	-7,7
2,937	45,4	-7,3
2,9375	44,2	-7,0
2,938	41,6	-7,6
2,9385	36,9	-9,2
2,939	29,7	-11,8
2,9395	20,5	-14,8
2,94	11,0	-17,0
2,9405	3,0	-17,8
2,941	-2,0	-17,4
2,9415	-3,6	-16,3
2,942	-2,1	-14,8
2,9425	1,9	-12,8
2,943	7,5	-10,4
2,9435	13,0	-7,5
2,944	17,3	-4,1
2,9445	20,4	-0,2
2,945	22,6	4,0
2,9455	24,3	7,8
2,946	25,8	10,8
2,9465	28,0	12,9
2,947	31,3	14,3
2,9475	35,7	15,3
2,948	40,5	15,9
2,9485	44,4	16,2
2,949	46,1	15,8
2,9495	44,8	14,4
2,95	40,9	11,6
2,9505	35,1	7,3
2,951	28,4	2,0
2,9515	22,9	-2,6
2,952	20,5	-5,2
2,9525	21,5	-5,7
2,953	24,5	-5,0
2,9535	27,7	-4,1
2,954	30,1	-3,5
2,9545	31,3	-3,2
2,955	30,8	-3,1
2,9555	28,3	-3,4
2,956	24,0	-4,3
2,9565	19,0	-5,2
2,957	15,1	-5,8
2,9575	13,3	-6,1
2,958	13,3	-6,6
2,9585	14,1	-8,0
2,959	15,1	-10,2
2,9595	16,5	-12,1
2,96	17,7	-12,8
2,9605	18,1	-11,7
2,961	17,5	-8,9
2,9615	16,2	-5,3
2,962	14,8	-1,6
2,9625	13,7	1,7
2,963	13,8	4,2
2,9635	15,8	5,6
2,964	19,4	5,7
2,9645	23,8	4,7
2,965	27,6	2,9
2,9655	30,0	1,0
2,966	30,7	-0,5
2,9665	30,1	-1,4
2,967	28,5	-1,7
2,9675	26,3	-1,9
2,968	24,3	-1,9
2,9685	23,9	-2,1
2,969	25,5	-2,5
2,9695	28,3	-3,4
2,97	31,1	-4,9
2,9705	33,1	-6,9
2,971	34,1	-9,1
2,9715	33,7	-10,7
2,972	31,6	-11,6
2,9725	27,8	-11,7
2,973	23,2	-11,2
2,9735	18,8	-10,5
2,974	15,6	-9,9
2,9745	14,4	-9,5
2,975	15,2	-8,5
2,9755	17,9	-6,4
2,976	22,0	-3,4
2,9765	25,9	0,0
2,977	28,0	3,2
2,9775	28,0	6,0
2,978	26,6	8,5
2,9785	24,8	10,7
2,979	23,3	12,8
2,9795	22,7	14,7
2,98	23,6	16,3
2,9805	26,6	17,6
2,981	30,8	18,0
2,9815	34,5	16,4
2,982	36,4	12,4
2,9825	35,9	7,2
2,983	33,9	2,5
2,9835	31,5	-0,1
2,984	28,8	-0,7
2,9845	25,7	-0,2
2,985	23,1	-0,1
2,9855	22,1	-1,3
2,986	22,6	-3,6
2,9865	23,6	-6,3
2,987	24,3	-8,9
2,9875	24,7	-11,3
2,988	24,4	-13,8
2,9885	22,8	-16,4
2,989	19,5	-18,8
2,9895	14,6	-20,5
2,99	9,2	-21,4
2,9905	5,1	-21,4
2,991	3,3	-20,5
2,9915	3,3	-18,5
2,992	4,4	-15,5
2,9925	5,8	-11,9
2,993	6,8	-8,3
2,9935	6,1	-4,9
2,994	3,2	-2,1
2,9945	-0,8	0,0
2,995	-4,3	1,8
2,9955	-6,1	3,5
2,996	-6,3	5,5
2,9965	-4,7	7,3
2,997	-1,4	8,8
2,9975	3,7	9,6
2,998	10,0	9,9
2,9985	16,3	9,8
2,999	21,4	9,3
2,9995	24,4	8,6
3	25,4	7,6
3,0005	24,8	6,3
3,001	23,1	4,9
3,0015	22,1	3,8
3,002	23,7	3,0
3,0025	28,6	2,8
3,003	34,8	2,7
3,0035	39,8	2,2
3,004	41,8	0,8
3,0045	40,8	-1,3
3,005	37,2	-3,6
3,0055	31,6	-5,0
3,006	24,9	-4,8
3,0065	18,5	-3,1
3,007	13,9	-0,4
3,0075	12,1	2,1
3,008	13,1	3,4
3,0085	16,3	3,2
3,009	20,5	1,5
3,0095	24,8	-0,5
3,01	28,2	-1,2
3,0105	30,3	0,2
3,011	31,4	3,1
3,0115	31,6	6,2
3,012	30,9	8,6
3,0125	29,8	10,0
3,013	29,1	10,4
3,0135	29,7	9,6
3,014	31,6	8,0
3,0145	34,6	6,2
3,015	37,9	5,0
3,0155	40,1	4,2
3,016	40,1	3,6
3,0165	37,6	2,6
3,017	33,8	1,2
3,0175	30,3	-0,3
3,018	28,5	-1,9
3,0185	29,2	-3,7
3,019	31,4	-6,3
3,0195	33,9	-9,5
3,02	35,4	-12,8
3,0205	35,9	-15,5
3,021	35,7	-17,2
3,0215	34,3	-17,8
3,022	31,4	-17,2
3,0225	26,7	-15,8
3,023	20,8	-14,0
3,0235	14,8	-13,0
3,024	9,5	-13,3
3,0245	5,8	-14,4
3,025	4,2	-15,2
3,0255	4,3	-14,7
3,026	5,4	-13,3
3,0265	6,1	-11,5
3,027	5,3	-9,8
3,0275	3,0	-7,6
3,028	0,6	-4,8
3,0285	-0,9	-1,3
3,029	-1,2	2,5
3,0295	-0,2	5,8
3,03	2,6	7,6
3,0305	7,5	7,3
3,031	13,8	5,4
3,0315	20,4	2,8
3,032	26,0	0,7
3,0325	29,6	-0,6
3,033	31,1	-0,9
3,0335	31,4	-0,4
3,034	30,8	0,3
3,0345	29,5	0,8
3,035	28,0	0,6
3,0355	27,3	-0,5
3,036	27,6	-2,4
3,0365	28,2	-4,9
3,037	28,6	-7,4
3,0375	29,1	-9,7
3,038	29,8	-11,6
3,0385	29,7	-12,9
3,039	27,8	-13,6
3,0395	24,0	-13,4
3,04	19,5	-12,5
3,0405	16,2	-11,4
3,041	15,1	-10,7
3,0415	15,9	-10,7
3,042	18,2	-10,8
3,0425	22,0	-10,5
3,043	26,6	-9,1
3,0435	30,7	-6,6
3,044	33,1	-3,3
3,0445	33,9	0,3
3,045	34,0	4,0
3,0455	34,1	7,7
3,046	34,9	11,4
3,0465	36,9	14,9
3,047	40,3	17,6
3,0475	44,4	18,6
3,048	48,2	17,5
3,0485	50,3	14,6
3,049	50,0	10,3
3,0495	47,4	5,4
3,05	42,9	0,4
3,0505	37,2	-3,9
3,051	31,4	-6,9
3,0515	27,0	-8,5
3,052	25,4	-8,8
3,0525	26,5	-8,4
3,053	29,0	-7,9
3,0535	31,3	-7,8
3,054	32,4	-8,2
3,0545	31,8	-9,0
3,055	29,3	-9,7
3,0555	25,0	-10,0
3,056	19,9	-9,8
3,0565	15,4	-9,3
3,057	12,6	-9,2
3,0575	11,8	-9,9
3,058	12,8	-11,5
3,0585	15,0	-13,1
3,059	18,5	-14,0
3,0595	22,7	-13,6
3,06	26,1	-11,8
3,0605	27,5	-9,1
3,061	26,8	-5,8
3,0615	24,7	-2,6
3,062	21,9	0,5
3,0625	19,0	3,5
3,063	17,5	6,1
3,0635	18,6	8,2
3,064	22,7	9,4
3,0645	28,6	9,5
3,065	34,3	8,7
3,0655	38,1	7,6
3,066	39,5	7,2
3,0665	38,9	7,5
3,067	36,5	7,8
3,0675	32,5	7,4
3,068	28,0	6,1
3,0685	25,2	4,3
3,069	25,3	2,3
3,0695	28,1	0,8
3,07	32,3	-0,2
3,0705	36,4	-1,0
3,071	39,5	-1,9
3,0715	40,7	-3,2
3,072	39,3	-5,1
3,0725	35,4	-7,2
3,073	30,2	-8,9
3,0735	25,5	-9,2
3,074	22,8	-8,1
3,0745	22,5	-6,3
3,075	24,0	-5,0
3,0755	26,6	-4,8
3,076	29,5	-5,9
3,0765	31,3	-7,7
3,077	31,3	-8,5
3,0775	29,8	-6,9
3,078	28,2	-2,5
3,0785	27,1	3,7
3,079	26,3	10,3
3,0795	26,2	15,9
3,08	27,1	19,7
3,0805	29,8	21,6
3,081	34,0	22,3
3,0815	38,9	22,4
3,082	43,1	22,3
3,0825	44,9	21,8
3,083	43,8	20,8
3,0835	40,3	19,2
3,084	35,6	16,9
3,0845	31,2	13,4
3,085	28,9	9,3
3,0855	29,3	5,4
3,086	31,6	2,6
3,0865	34,3	0,5
3,087	36,6	-1,7
3,0875	38,1	-4,9
3,088	38,1	-9,1
3,0885	35,9	-13,4
3,089	31,8	-16,4
3,0895	26,9	-17,2
3,09	22,3	-16,3
3,0905	18,8	-15,1
3,091	17,0	-14,8
3,0915	17,2	-14,7
3,092	19,4	-13,7
3,0925	23,5	-10,8
3,093	28,6	-6,4
3,0935	32,4	-1,2
3,094	33,7	3,6
3,0945	32,4	7,2
3,095	29,3	8,9
3,0955	25,1	8,5
3,096	20,8	6,4
3,0965	17,8	3,3
3,097	17,1	0,3
3,0975	19,2	-2,2
3,098	23,4	-3,9
3,0985	28,3	-4,9
3,099	32,4	-5,2
3,0995	34,6	-4,6
3,1	34,8	-3,3
3,1005	33,4	-1,8
3,101	31,2	-0,8
3,1015	29,7	-0,5
3,102	30,0	-0,8
3,1025	32,2	-2,0
3,103	35,1	-4,1
3,1035	37,7	-6,6
3,104	39,3	-9,1
3,1045	39,4	-11,1
3,105	37,8	-12,7
3,1055	34,3	-14,2
3,106	29,0	-15,4
3,1065	23,3	-16,0
3,107	18,9	-15,8
3,1075	16,9	-14,9
3,108	17,2	-14,3
3,1085	19,2	-14,0
3,109	22,5	-14,0
3,1095	26,3	-13,8
3,11	29,2	-12,6
3,1105	29,9	-10,2
3,111	28,3	-6,8
3,1115	25,5	-2,8
3,112	22,4	1,3
3,1125	19,8	5,0
3,113	18,2	7,7
3,1135	18,0	9,0
3,114	19,3	8,9
3,1145	22,3	7,9
3,115	27,6	7,0
3,1155	34,8	6,8
3,116	42,3	7,2
3,1165	48,2	7,8
3,117	50,6	8,0
3,1175	49,1	7,1
3,118	44,8	5,1
3,1185	40,0	2,3
3,119	36,5	-0,7
3,1195	34,4	-3,6
3,12	32,9	-6,3
3,1205	31,1	-8,8
3,121	28,6	-10,9
3,1215	24,8	-12,5
3,122	19,4	-13,4
3,1225	12,4	-13,5
3,123	4,8	-12,7
3,1235	-1,8	-10,9
3,124	-6,3	-8,7
3,1245	-8,0	-6,7
3,125	-7,3	-4,9
3,1255	-4,8	-3,4
3,126	-1,0	-2,0
3,1265	2,7	-0,8
3,127	5,0	0,2
3,1275	5,8	1,5
3,128	5,8	3,1
3,1285	5,8	4,8
3,129	6,0	6,6
3,1295	7,2	8,4
3,13	10,0	10,0
3,1305	14,3	11,1
3,131	19,2	11,5
3,1315	23,2	11,2
3,132	25,5	10,5
3,1325	25,7	9,7
3,133	23,9	8,7
3,1335	20,8	7,6
3,134	16,8	6,0
3,1345	12,8	3,9
3,135	10,4	1,6
3,1355	10,8	-0,6
3,136	13,8	-2,0
3,1365	18,4	-2,4
3,137	23,7	-2,1
3,1375	28,9	-1,8
3,138	32,5	-1,8
3,1385	33,1	-2,3
3,139	30,8	-3,3
3,1395	27,1	-4,7
3,14	24,3	-6,5
3,1405	23,8	-8,7
3,141	25,7	-10,4
3,1415	28,9	-10,9
3,142	32,6	-9,9
3,1425	36,2	-8,4
3,143	38,3	-7,3
3,1435	37,3	-7,3
3,144	33,2	-7,8
3,1445	27,6	-7,7
3,145	22,9	-6,1
3,1455	19,8	-2,8
3,146	18,5	1,8
3,1465	19,8	7,3
3,147	24,3	13,1
3,1475	31,2	18,3
3,148	38,6	22,0
3,1485	44,3	23,6
3,149	47,0	23,3
3,1495	47,2	21,8
3,15	46,4	20,1
3,1505	45,4	18,4
3,151	43,9	16,7
3,1515	42,4	14,9
3,152	42,0	12,9
3,1525	43,0	10,2
3,153	44,5	6,3
3,1535	45,4	0,8
3,154	45,3	-5,1
3,1545	44,4	-9,4
3,155	42,8	-11,0
3,1555	39,8	-10,5
3,156	35,3	-9,9
3,1565	29,2	-10,4
3,157	22,9	-12,2
3,1575	18,0	-14,3
3,158	15,3	-16,2
3,1585	14,8	-17,6
3,159	16,2	-18,8
3,1595	18,1	-19,8
3,16	19,1	-20,3
3,1605	18,7	-19,6
3,161	17,4	-17,2
3,1615	16,1	-13,3
3,162	14,8	-9,0
3,1625	13,5	-5,1
3,163	12,7	-2,4
3,1635	13,1	-0,8
3,164	15,0	-0,4
3,1645	17,8	-0,8
3,165	20,4	-1,8
3,1655	21,7	-3,0
3,166	21,0	-4,1
3,1665	18,6	-4,8
3,167	14,9	-5,4
3,1675	10,8	-6,1
3,168	7,4	-6,8
3,1685	6,2	-7,6
3,169	7,3	-8,3
3,1695	10,0	-9,1
3,17	12,9	-10,1
3,1705	15,7	-11,1
3,171	18,2	-12,2
3,1715	19,8	-12,6
3,172	20,2	-12,0
3,1725	19,0	-10,0
3,173	17,1	-7,1
3,1735	15,8	-4,5
3,174	16,4	-2,8
3,1745	18,8	-2,3
3,175	22,2	-2,3
3,1755	26,0	-1,9
3,176	30,0	-0,8
3,1765	33,1	0,7
3,177	34,3	2,3
3,1775	33,3	3,8
3,178	30,8	4,4
3,1785	27,2	3,7
3,179	22,9	1,7
3,1795	19,3	-0,7
3,18	18,3	-2,0
3,1805	20,6	-1,7
3,181	25,0	-0,5
3,1815	29,6	0,3
3,182	32,5	0,5
3,1825	33,3	0,6
3,183	32,0	0,9
3,1835	29,4	1,5
3,184	26,2	1,9
3,1845	23,1	1,7
3,185	21,3	0,8
3,1855	21,7	-1,0
3,186	23,8	-3,5
3,1865	26,2	-6,5
3,187	28,0	-9,6
3,1875	28,9	-12,4
3,188	28,0	-14,4
3,1885	24,9	-15,4
3,189	19,6	-15,5
3,1895	13,3	-15,0
3,19	7,8	-14,1
3,1905	4,8	-12,7
3,191	4,7	-11,1
3,1915	7,0	-9,0
3,192	10,5	-6,7
3,1925	14,4	-4,1
3,193	17,8	-1,5
3,1935	19,8	0,9
3,194	19,6	2,9
3,1945	17,5	4,7
3,195	14,3	6,2
3,1955	10,8	7,6
3,196	8,3	9,2
3,1965	8,2	10,9
3,197	10,9	12,3
3,1975	15,9	13,1
3,198	21,5	12,9
3,1985	26,0	12,2
3,199	28,3	11,2
3,1995	28,2	10,1
3,2	26,2	8,8
3,2005	22,8	6,8
3,201	18,9	4,2
3,2015	16,5	1,2
3,202	17,5	-1,7
3,2025	22,0	-4,0
3,203	28,3	-5,7
3,2035	34,1	-6,7
3,204	37,9	-7,2
3,2045	38,6	-7,6
3,205	36,4	-8,2
3,2055	31,8	-8,6
3,206	25,9	-8,5
3,2065	19,7	-7,7
3,207	14,3	-6,2
3,2075	11,2	-4,3
3,208	10,6	-2,0
3,2085	11,8	0,9
3,209	13,9	4,4
3,2095	15,8	8,4
3,21	16,0	12,2
3,2105	14,2	15,1
3,211	11,4	16,9
3,2115	9,0	17,5
3,212	7,1	16,9
3,2125	5,5	15,4
3,213	5,2	13,6
3,2135	7,6	12,1
3,214	13,1	10,8
3,2145	20,2	9,6
3,215	26,6	7,8
3,2155	30,2	5,0
3,216	30,7	1,7
3,2165	28,8	-1,6
3,217	26,1	-3,9
3,2175	23,6	-4,9
3,218	22,2	-5,1
3,2185	22,6	-5,0
3,219	24,9	-4,8
3,2195	28,1	-4,0
3,22	31,3	-2,3
3,2205	34,7	0,1
3,221	38,1	3,1
3,2215	40,7	5,8
3,222	41,2	7,6
3,2225	38,8	7,7
3,223	34,0	6,0
3,2235	28,8	3,9
3,224	25,3	2,7
3,2245	24,4	2,8
3,225	25,5	3,3
3,2255	27,5	2,8
3,226	29,3	0,1
3,2265	29,6	-4,1
3,227	27,3	-8,1
3,2275	22,6	-10,4
3,228	16,6	-11,5
3,2285	10,3	-12,2
3,229	4,7	-12,9
3,2295	0,8	-13,1
3,23	-0,4	-12,4
3,2305	1,7	-10,7
3,231	6,6	-8,3
3,2315	12,8	-5,7
3,232	18,7	-3,2
3,2325	22,8	-1,4
3,233	24,5	-0,0
3,2335	24,3	1,0
3,234	22,9	1,7
3,2345	20,8	1,9
3,235	19,5	1,5
3,2355	20,1	0,3
3,236	22,2	-1,8
3,2365	24,5	-4,5
3,237	25,8	-7,6
3,2375	25,8	-10,6
3,238	24,3	-12,9
3,2385	21,2	-14,2
3,239	16,6	-14,5
3,2395	10,7	-14,4
3,24	4,4	-15,0
3,2405	-0,8	-16,6
3,241	-3,5	-18,2
3,2415	-3,3	-18,7
3,242	-0,5	-17,5
3,2425	4,3	-14,8
3,243	9,8	-11,2
3,2435	14,4	-7,3
3,244	17,3	-3,4
3,2445	18,7	0,4
3,245	19,4	4,1
3,2455	19,9	7,5
3,246	20,3	10,2
3,2465	21,1	11,7
3,247	22,7	11,6
3,2475	25,5	10,1
3,248	29,0	7,6
3,2485	32,5	5,1
3,249	35,1	3,4
3,2495	36,0	2,8
3,25	35,2	2,6
3,2505	32,6	2,4
3,251	29,2	1,4
3,2515	26,6	-0,4
3,252	26,4	-3,1
3,2525	28,5	-6,3
3,253	31,3	-8,9
3,2535	33,3	-10,5
3,254	34,0	-11,0
3,2545	33,1	-10,8
3,255	30,8	-10,6
3,2555	27,0	-10,4
3,256	21,2	-10,3
3,2565	13,5	-10,2
3,257	5,2	-10,0
3,2575	-1,3	-9,8
3,258	-4,5	-9,3
3,2585	-3,9	-7,8
3,259	-0,6	-5,2
3,2595	4,0	-1,8
3,26	7,8	1,7
3,2605	9,5	4,7
3,261	9,2	7,0
3,2615	7,8	8,5
3,262	6,2	9,4
3,2625	5,0	10,2
3,263	5,5	11,3
3,2635	8,9	12,8
3,264	15,7	14,3
3,2645	24,6	15,2
3,265	33,3	15,0
3,2655	39,6	13,8
3,266	42,1	12,0
3,2665	40,8	9,8
3,267	36,5	6,8
3,2675	30,8	3,1
3,268	25,6	-0,9
3,2685	22,2	-4,5
3,269	20,9	-7,6
3,2695	20,7	-10,3
3,27	20,3	-13,1
3,2705	19,6	-15,8
3,271	18,6	-18,3
3,2715	17,3	-20,2
3,272	15,1	-20,7
3,2725	11,7	-19,8
3,273	7,3	-17,5
3,2735	3,4	-14,3
3,274	1,4	-10,6
3,2745	2,0	-7,0
3,275	4,6	-3,8
3,2755	8,4	-1,0
3,276	12,7	1,6
3,2765	16,5	4,2
3,277	18,8	7,3
3,2775	19,4	10,9
3,278	19,0	14,6
3,2785	18,1	17,7
3,279	17,1	20,0
3,2795	16,4	21,9
3,28	16,8	23,8
3,2805	18,7	25,2
3,281	23,1	25,3
3,2815	29,7	23,9
3,282	37,1	21,2
3,2825	42,6	17,5
3,283	44,2	12,8
3,2835	41,1	6,4
3,284	34,1	-1,2
3,2845	25,1	-8,4
3,285	17,1	-12,9
3,2855	12,2	-13,6
3,286	10,6	-11,3
3,2865	10,9	-7,9
3,287	12,0	-4,9
3,2875	13,2	-2,8
3,288	13,6	-1,3
3,2885	12,3	-0,1
3,289	8,8	1,2
3,2895	3,9	2,4
3,29	-0,3	3,3
3,2905	-2,1	3,4
3,291	-1,2	1,9
3,2915	1,2	-1,1
3,292	4,0	-5,0
3,2925	6,9	-8,4
3,293	9,7	-10,2
3,2935	11,3	-10,0
3,294	11,2	-8,1
3,2945	9,9	-5,0
3,295	9,2	-1,2
3,2955	10,2	3,1
3,296	13,0	7,3
3,2965	17,3	10,9
3,297	22,6	13,6
3,2975	28,0	15,3
3,298	32,3	15,8
3,2985	34,4	15,2
3,299	33,4	12,9
3,2995	29,3	8,7
3,3	23,2	3,2
3,3005	16,5	-2,1
3,301	10,6	-5,6
3,3015	6,9	-7,0
3,302	6,4	-7,6
3,3025	8,4	-8,7
3,303	11,2	-11,0
3,3035	13,1	-14,0
3,304	13,8	-17,1
3,3045	13,6	-19,4
3,305	12,3	-20,7
3,3055	9,3	-21,0
3,306	4,7	-20,7
3,3065	-0,2	-19,7
3,307	-3,8	-18,4
3,3075	-4,8	-17,0
3,308	-3,5	-16,0
3,3085	-0,7	-15,3
3,309	3,0	-14,7
3,3095	6,8	-13,8
3,31	9,1	-12,5
3,3105	9,1	-10,6
3,311	7,4	-8,1
3,3115	5,3	-5,3
3,312	3,4	-2,6
3,3125	1,8	-0,1
3,313	0,6	2,4
3,3135	0,3	4,6
3,314	1,4	6,1
3,3145	3,9	6,5
3,315	6,9	5,8
3,3155	9,0	4,1
3,316	9,2	2,3
3,3165	7,6	0,9
3,317	4,7	-0,2
3,3175	1,5	-0,9
3,318	-0,6	-1,4
3,3185	-0,4	-2,0
3,319	2,3	-2,7
3,3195	6,2	-3,8
3,32	10,0	-5,1
3,3205	13,2	-6,4
3,321	15,9	-7,4
3,3215	17,9	-7,9
3,322	18,8	-7,7
3,3225	17,8	-6,6
3,323	15,1	-4,9
3,3235	11,4	-2,9
3,324	8,3	-1,3
3,3245	6,7	-0,4
3,325	6,6	0,1
3,3255	7,5	0,9
3,326	9,1	2,1
3,3265	10,5	3,6
3,327	11,0	5,2
3,3275	10,3	6,6
3,328	8,8	7,9
3,3285	6,7	8,8
3,329	4,0	9,1
3,3295	1,7	8,9
3,33	1,0	8,3
3,3305	2,9	7,2
3,331	6,7	5,8
3,3315	10,9	4,3
3,332	14,1	2,9
3,3325	15,4	2,0
3,333	14,6	1,4
3,3335	12,4	1,0
3,334	9,6	0,7
3,3345	7,2	0,3
3,335	6,0	-0,5
3,3355	6,6	-2,0
3,336	8,0	-4,4
3,3365	8,7	-7,8
3,337	7,8	-11,8
3,3375	5,3	-15,4
3,338	1,7	-17,8
3,3385	-2,7	-18,8
3,339	-7,4	-18,3
3,3395	-12,1	-16,9
3,34	-15,6	-14,8
3,3405	-16,7	-11,9
3,341	-15,0	-8,2
3,3415	-10,7	-4,0
3,342	-4,8	0,2
3,3425	1,7	3,8
3,343	7,0	6,2
3,3435	10,1	7,5
3,344	10,7	8,4
3,3445	10,4	10,1
3,345	10,8	13,0
3,3455	12,4	16,8
3,346	14,7	20,5
3,3465	17,1	22,8
3,347	19,1	22,1
3,3475	20,6	17,6
3,348	20,9	9,9
3,3485	19,1	1,0
3,349	14,7	-6,4
3,3495	8,5	-10,6
3,35	1,8	-11,4
3,3505	-4,3	-9,8
3,351	-8,8	-7,0
3,3515	-10,6	-4,1
3,352	-8,8	-1,9
3,3525	-3,0	-0,6
3,353	5,8	-0,0
3,3535	15,7	-0,2
3,354	24,6	-1,0
3,3545	30,4	-2,3
3,355	32,3	-3,8
3,3555	30,4	-5,6
3,356	25,2	-7,9
3,3565	18,1	-11,1
3,357	11,2	-15,2
3,3575	6,8	-19,2
3,358	6,0	-22,0
3,3585	8,3	-22,7
3,359	11,1	-22,4
3,3595	11,6	-22,3
3,36	8,2	-22,7
3,3605	1,3	-22,7
3,361	-6,7	-21,5
3,3615	-13,8	-19,1
3,362	-18,8	-15,6
3,3625	-21,2	-11,3
3,363	-20,6	-6,5
3,3635	-16,9	-1,7
3,364	-10,8	2,3
3,3645	-3,7	5,0
3,365	2,8	6,0
3,3655	7,1	5,6
3,366	8,8	4,2
3,3665	8,3	2,3
3,367	6,0	0,3
3,3675	2,7	-1,3
3,368	-0,5	-2,2
3,3685	-1,2	-2,7
3,369	1,6	-3,1
3,3695	6,8	-3,7
3,37	12,0	-4,7
3,3705	15,9	-6,0
3,371	18,0	-7,3
3,3715	18,2	-8,4
3,372	16,6	-8,9
3,3725	13,5	-8,9
3,373	9,6	-8,6
3,3735	5,5	-9,0
3,374	1,7	-11,0
3,3745	-1,8	-14,5
3,375	-4,6	-18,8
3,3755	-5,8	-22,1
3,376	-5,2	-23,3
3,3765	-3,6	-22,2
3,377	-2,7	-19,3
3,3775	-3,2	-15,7
3,378	-4,5	-12,3
3,3785	-6,1	-9,7
3,379	-7,5	-7,6
3,3795	-8,3	-5,6
3,38	-7,6	-3,7
3,3805	-4,9	-2,1
3,381	-0,8	-1,2
3,3815	3,5	-0,9
3,382	6,8	-1,1
3,3825	8,0	-1,3
3,383	7,1	-1,5
3,3835	4,6	-1,9
3,384	1,2	-2,6
3,3845	-1,9	-3,7
3,385	-3,4	-5,4
3,3855	-2,7	-7,5
3,386	-0,7	-9,9
3,3865	1,5	-12,3
3,387	3,3	-14,3
3,3875	4,6	-16,0
3,388	4,8	-17,4
3,3885	3,4	-18,3
3,389	0,4	-18,7
3,3895	-3,2	-18,3
3,39	-5,6	-16,8
3,3905	-5,9	-14,7
3,391	-4,2	-12,6
3,3915	-1,6	-10,9
3,392	1,3	-9,9
3,3925	4,0	-9,2
3,393	5,9	-8,5
3,3935	6,3	-7,6
3,394	4,8	-6,0
3,3945	2,3	-3,8
3,395	-0,5	-1,1
3,3955	-3,3	1,9
3,396	-5,8	5,2
3,3965	-7,2	8,1
3,397	-6,7	10,1
3,3975	-4,0	10,9
3,398	-0,1	10,5
3,3985	3,0	9,3
3,399	3,8	7,4
3,3995	1,8	4,4
3,4	-2,0	0,7
3,4005	-6,3	-3,6
3,401	-10,2	-7,3
3,4015	-12,5	-9,9
3,402	-12,5	-11,0
3,4025	-10,7	-11,5
3,403	-8,7	-12,3
3,4035	-8,0	-14,1
3,404	-8,9	-17,1
3,4045	-10,9	-20,7
3,405	-13,6	-23,9
3,4055	-16,7	-25,7
3,406	-19,8	-25,3
3,4065	-22,2	-22,8
3,407	-23,1	-18,9
3,4075	-21,9	-14,3
3,408	-18,9	-9,4
3,4085	-14,7	-4,6
3,409	-9,7	0,2
3,4095	-4,5	4,5
3,41	0,0	8,1
3,4105	3,4	11,3
3,411	5,7	14,2
3,4115	7,5	16,5
3,412	9,1	17,6
3,4125	10,3	16,8
3,413	11,0	13,7
3,4135	11,3	8,9
3,414	11,7	2,9
3,4145	12,5	-3,5
3,415	13,0	-9,4
3,4155	12,4	-13,6
3,416	10,7	-15,3
3,4165	8,3	-14,5
3,417	5,1	-13,1
3,4175	0,9	-13,2
3,418	-3,7	-15,7
3,4185	-6,8	-19,7
3,419	-7,2	-23,3
3,4195	-5,5	-25,4
3,42	-2,9	-26,2
3,4205	-0,4	-26,2
3,421	1,8	-26,0
3,4215	3,4	-25,5
3,422	3,5	-24,7
3,4225	1,8	-23,4
3,423	-1,4	-21,9
3,4235	-4,5	-20,3
3,424	-6,2	-19,2
3,4245	-6,0	-18,8
3,425	-4,5	-18,8
3,4255	-2,1	-18,8
3,426	0,6	-18,6
3,4265	2,2	-18,2
3,427	1,7	-17,7
3,4275	-0,7	-16,8
3,428	-3,3	-15,2
3,4285	-4,8	-12,7
3,429	-4,9	-9,2
3,4295	-3,5	-5,2
3,43	-0,3	-1,7
3,4305	4,8	0,5
3,431	11,2	0,8
3,4315	17,5	-0,2
3,432	22,1	-1,9
3,4325	24,2	-3,1
3,433	23,8	-3,3
3,4335	21,5	-2,3
3,434	17,9	-0,6
3,4345	13,8	0,9
3,435	10,3	0,7
3,4355	7,8	-2,0
3,436	5,7	-7,0
3,4365	3,0	-12,9
3,437	0,1	-18,0
3,4375	-2,6	-21,5
3,438	-5,3	-24,0
3,4385	-8,8	-26,3
3,439	-13,4	-28,3
3,4395	-18,5	-29,3
3,44	-23,1	-29,3
3,4405	-25,9	-28,3
3,441	-26,2	-27,1
3,4415	-23,8	-26,1
3,442	-19,4	-25,3
3,4425	-13,9	-24,2
3,443	-9,0	-22,8
3,4435	-6,2	-21,0
3,444	-5,9	-18,8
3,4445	-7,0	-16,2
3,445	-8,1	-13,3
3,4455	-8,3	-10,2
3,446	-7,2	-7,1
3,4465	-4,2	-4,2
3,447	0,5	-2,2
3,4475	5,9	-1,5
3,448	10,5	-1,9
3,4485	13,1	-2,4
3,449	13,1	-2,1
3,4495	11,3	-1,0
3,45	8,4	0,2
3,4505	4,3	0,7
3,451	-0,2	0,3
3,4515	-3,7	-1,1
3,452	-4,7	-3,1
3,4525	-3,6	-5,6
3,453	-1,7	-8,5
3,4535	-0,3	-11,7
3,454	0,2	-15,6
3,4545	-0,7	-20,3
3,455	-3,6	-25,4
3,4555	-8,3	-29,9
3,456	-14,2	-32,5
3,4565	-19,4	-32,4
3,457	-22,3	-30,0
3,4575	-21,7	-26,6
3,458	-18,1	-23,2
3,4585	-12,8	-20,3
3,459	-7,2	-17,8
3,4595	-2,5	-15,4
3,46	-0,3	-13,0
3,4605	-1,0	-10,2
3,461	-3,6	-7,0
3,4615	-6,5	-3,7
3,462	-8,7	-0,3
3,4625	-9,8	2,9
3,463	-9,6	5,7
3,4635	-7,7	7,8
3,464	-4,1	8,8
3,4645	0,3	8,8
3,465	4,1	7,8
3,4655	5,6	6,2
3,466	3,9	4,1
3,4665	-1,1	1,7
3,467	-8,6	-1,1
3,4675	-17,1	-3,8
3,468	-24,1	-6,0
3,4685	-27,3	-7,7
3,469	-25,9	-9,0
3,4695	-21,2	-9,8
3,47	-14,5	-10,4
3,4705	-6,2	-10,8
3,471	2,8	-11,4
3,4715	10,7	-12,2
3,472	15,3	-13,1
3,4725	15,4	-14,1
3,473	11,8	-14,9
3,4735	6,6	-15,8
3,474	2,6	-16,6
3,4745	1,6	-17,4
3,475	4,1	-17,4
3,4755	9,0	-15,9
3,476	14,6	-12,8
3,4765	18,5	-9,2
3,477	18,3	-6,1
3,4775	13,0	-4,5
3,478	3,4	-4,4
3,4785	-7,4	-5,1
3,479	-16,6	-5,9
3,4795	-22,1	-5,9
3,48	-22,9	-4,8
3,4805	-19,4	-2,9
3,481	-13,0	-0,7
3,4815	-5,9	1,2
3,482	0,0	1,9
3,4825	3,6	1,1
3,483	4,8	-1,1
3,4835	3,8	-4,4
3,484	1,5	-8,3
3,4845	-1,2	-12,1
3,485	-2,8	-15,7
3,4855	-2,4	-19,1
3,486	-0,2	-22,3
3,4865	3,2	-25,4
3,487	7,1	-28,3
3,4875	10,7	-30,1
3,488	12,8	-30,5
3,4885	12,6	-29,3
3,489	9,9	-26,9
3,4895	6,1	-24,0
3,49	2,8	-20,7
3,4905	1,6	-17,5
3,491	2,7	-15,0
3,4915	5,3	-13,6
3,492	8,4	-13,1
3,4925	11,4	-12,9
3,493	13,7	-12,2
3,4935	14,0	-10,0
3,494	12,2	-6,6
3,4945	8,8	-2,7
3,495	5,3	0,8
3,4955	2,9	3,8
3,496	2,8	6,7
3,4965	4,7	9,4
3,497	8,2	11,2
3,4975	12,2	12,0
3,498	16,3	11,8
3,4985	19,3	10,9
3,499	20,7	9,6
3,4995	20,1	7,3
3,5	17,4	3,9
3,5005	12,7	-0,7
3,501	7,2	-5,7
3,5015	2,9	-10,1
3,502	1,6	-13,9
3,5025	3,3	-18,0
3,503	6,4	-22,3
3,5035	9,3	-26,3
3,504	11,5	-29,2
3,5045	12,4	-31,0
3,505	11,4	-32,3
3,5055	8,3	-33,8
3,506	3,3	-35,5
3,5065	-2,5	-37,2
3,507	-7,2	-38,4
3,5075	-9,2	-38,5
3,508	-8,3	-37,3
3,5085	-5,4	-34,6
3,509	-1,3	-31,1
3,5095	2,7	-27,5
3,51	4,7	-24,2
3,5105	4,3	-21,0
3,511	2,0	-17,8
3,5115	-0,8	-14,7
3,512	-3,6	-12,3
3,5125	-5,8	-10,4
3,513	-6,7	-8,9
3,5135	-5,3	-7,5
3,514	-1,8	-6,2
3,5145	2,7	-5,1
3,515	6,3	-4,7
3,5155	7,8	-5,5
3,516	6,4	-7,5
3,5165	2,7	-10,3
3,517	-2,4	-13,3
3,5175	-7,6	-15,3
3,518	-11,5	-16,2
3,5185	-12,7	-16,5
3,519	-10,9	-16,9
3,5195	-7,2	-18,0
3,52	-3,1	-19,6
3,5205	0,7	-21,3
3,521	3,6	-22,7
3,5215	5,1	-23,4
3,522	5,2	-23,2
3,5225	4,3	-22,0
3,523	3,2	-20,2
3,5235	3,0	-18,0
3,524	4,3	-16,0
3,5245	7,4	-14,4
3,525	11,7	-12,9
3,5255	16,9	-11,4
3,526	21,8	-9,8
3,5265	24,8	-8,2
3,527	24,7	-6,4
3,5275	22,4	-4,5
3,528	19,1	-2,5
3,5285	15,9	-1,1
3,529	13,2	-0,2
3,5295	11,8	0,6
3,53	12,4	1,5
3,5305	15,2	2,7
3,531	19,5	3,7
3,5315	24,0	3,8
3,532	27,1	2,6
3,5325	27,9	0,4
3,533	26,4	-2,0
3,5335	23,6	-3,9
3,534	20,3	-5,0
3,5345	17,7	-5,8
3,535	16,8	-6,6
3,5355	17,8	-8,1
3,536	19,8	-10,4
3,5365	21,3	-13,7
3,537	21,8	-17,3
3,5375	21,5	-20,8
3,538	20,5	-23,3
3,5385	18,7	-24,5
3,539	15,5	-24,9
3,5395	11,3	-25,0
3,54	7,2	-25,3
3,5405	4,7	-25,2
3,541	4,7	-24,2
3,5415	6,7	-22,2
3,542	10,1	-19,6
3,5425	14,4	-17,0
3,543	18,3	-15,3
3,5435	19,9	-14,7
3,544	18,1	-15,3
3,5445	13,7	-16,3
3,545	8,5	-16,5
3,5455	4,0	-15,4
3,546	1,2	-12,9
3,5465	0,9	-9,6
3,547	3,4	-6,7
3,5475	8,1	-5,3
3,548	13,7	-5,4
3,5485	18,2	-6,6
3,549	20,4	-7,9
3,5495	20,2	-8,8
3,55	18,4	-9,1
3,5505	15,7	-9,1
3,551	12,8	-9,0
3,5515	11,0	-8,9
3,552	11,3	-8,7
3,5525	13,1	-8,5
3,553	14,7	-8,9
3,5535	14,6	-10,1
3,554	12,9	-12,1
3,5545	10,1	-14,4
3,555	6,9	-16,4
3,5555	3,9	-17,6
3,556	1,6	-17,5
3,5565	0,0	-16,8
3,557	-0,9	-16,3
3,5575	-1,2	-16,6
3,558	-0,8	-17,9
3,5585	0,3	-20,2
3,559	3,0	-22,7
3,5595	7,8	-24,4
3,56	13,8	-24,6
3,5605	19,6	-22,7
3,561	24,9	-19,2
3,5615	30,1	-14,5
3,562	35,4	-9,6
3,5625	39,7	-5,5
3,563	42,8	-2,7
3,5635	44,9	-1,2
3,564	46,7	-0,5
3,5645	48,0	-0,3
3,565	47,7	-0,4
3,5655	44,8	-0,9
3,566	39,1	-1,9
3,5665	31,5	-3,5
3,567	22,9	-5,7
3,5675	13,9	-8,9
3,568	5,8	-13,5
3,5685	0,0	-18,7
3,569	-2,3	-23,2
3,5695	-1,7	-26,0
3,57	0,6	-27,1
3,5705	3,2	-27,4
3,571	5,4	-27,6
3,5715	6,6	-27,5
3,572	6,5	-26,4
3,5725	5,4	-24,0
3,573	3,9	-20,8
3,5735	2,8	-17,8
3,574	2,8	-15,5
3,5745	4,4	-13,6
3,575	7,5	-12,0
3,5755	12,0	-10,4
3,576	17,1	-9,0
3,5765	21,1	-7,7
3,577	22,6	-6,4
3,5775	21,5	-5,3
3,578	18,8	-5,2
3,5785	15,7	-6,4
3,579	12,8	-8,2
3,5795	11,1	-8,7
3,58	11,3	-6,8
3,5805	13,6	-3,0
3,581	17,6	0,9
3,5815	21,6	3,2
3,582	23,8	2,7
3,5825	23,1	-0,2
3,583	20,2	-4,1
3,5835	16,5	-7,8
3,584	13,0	-10,8
3,5845	10,3	-13,3
3,585	9,2	-16,0
3,5855	10,2	-19,1
3,586	12,8	-22,6
3,5865	16,1	-25,8
3,587	19,5	-28,0
3,5875	22,4	-29,1
3,588	23,9	-29,5
3,5885	23,4	-29,5
3,589	20,9	-29,2
3,5895	17,4	-28,3
3,59	14,1	-26,8
3,5905	12,2	-24,8
3,591	12,4	-22,4
3,5915	14,5	-19,8
3,592	18,1	-17,2
3,5925	22,6	-14,6
3,593	26,4	-12,4
3,5935	27,8	-10,5
3,594	26,1	-8,7
3,5945	22,1	-7,2
3,595	17,3	-6,0
3,5955	13,0	-5,5
3,596	9,8	-5,6
3,5965	8,5	-6,2
3,597	9,4	-7,1
3,5975	12,6	-7,8
3,598	17,1	-8,0
3,5985	21,6	-7,8
3,599	24,5	-7,1
3,5995	25,2	-6,4
3,6	23,7	-5,9
3,6005	20,2	-6,1
3,601	15,8	-6,9
3,6015	12,3	-8,2
3,602	10,9	-9,7
3,6025	12,0	-11,2
3,603	14,7	-13,0
3,6035	17,9	-15,4
3,604	20,6	-18,6
3,6045	21,3	-22,0
3,605	19,5	-24,8
3,6055	15,3	-26,5
3,606	9,8	-26,9
3,6065	4,6	-26,1
3,607	1,0	-24,2
3,6075	0,2	-21,7
3,608	1,8	-18,8
3,6085	5,4	-16,1
3,609	9,7	-14,1
3,6095	13,2	-12,9
3,61	14,6	-12,1
3,6105	13,8	-10,7
3,611	12,3	-8,3
3,6115	11,4	-4,8
3,612	11,8	-1,0
3,6125	13,0	2,8
3,613	15,7	5,9
3,6135	20,6	8,2
3,614	27,8	9,3
3,6145	35,6	9,2
3,615	41,9	7,9
3,6155	45,0	5,7
3,616	44,8	2,6
3,6165	42,2	-1,2
3,617	38,0	-5,7
3,6175	33,3	-10,6
3,618	29,4	-15,0
3,6185	28,3	-18,0
3,619	30,2	-19,2
3,6195	33,2	-18,9
3,62	35,2	-17,9
3,6205	35,5	-17,1
3,621	34,3	-16,9
3,6215	31,8	-17,3
3,622	28,1	-18,2
3,6225	23,8	-19,0
3,623	19,5	-19,6
3,6235	16,0	-19,9
3,624	13,6	-20,4
3,6245	11,5	-21,7
3,625	9,3	-24,2
3,6255	7,3	-27,5
3,626	5,7	-29,9
3,6265	4,2	-30,2
3,627	2,3	-28,0
3,6275	0,3	-24,1
3,628	-1,3	-19,5
3,6285	-1,8	-15,0
3,629	-1,3	-10,8
3,6295	0,4	-6,8
3,63	3,9	-3,4
3,6305	9,3	-0,8
3,631	15,7	0,1
3,6315	21,8	-0,6
3,632	25,9	-2,6
3,6325	27,6	-5,1
3,633	27,3	-7,3
3,6335	25,7	-8,6
3,634	23,8	-8,8
3,6345	23,2	-8,4
3,635	25,3	-7,8
3,6355	30,1	-7,8
3,636	35,3	-9,1
3,6365	39,2	-12,2
3,637	41,3	-16,4
3,6375	41,6	-20,9
3,638	39,5	-24,6
3,6385	34,7	-27,3
3,639	27,9	-28,8
3,6395	20,4	-29,3
3,64	13,5	-28,8
3,6405	8,2	-28,1
3,641	4,8	-27,6
3,6415	3,7	-27,3
3,642	4,9	-26,5
3,6425	8,2	-25,0
3,643	12,2	-22,9
3,6435	15,1	-20,3
3,644	16,5	-17,3
3,6445	16,7	-14,2
3,645	16,4	-11,4
3,6455	15,8	-9,2
3,646	15,6	-7,5
3,6465	16,5	-6,3
3,647	19,2	-5,5
3,6475	23,2	-5,1
3,648	27,6	-5,2
3,6485	30,9	-5,7
3,649	32,3	-6,4
3,6495	31,3	-7,2
3,65	28,5	-8,2
3,6505	24,3	-9,4
3,651	19,8	-11,0
3,6515	16,8	-12,8
3,652	16,4	-14,4
3,6525	18,3	-15,6
3,653	21,3	-16,0
3,6535	24,4	-15,4
3,654	27,1	-14,0
3,6545	29,0	-12,1
3,655	29,4	-9,8
3,6555	28,1	-7,3
3,656	25,4	-4,5
3,6565	22,8	-1,5
3,657	21,9	1,3
3,6575	23,6	3,6
3,658	27,0	5,1
3,6585	30,5	5,5
3,659	33,2	4,6
3,6595	34,5	2,6
3,66	34,1	0,4
3,6605	31,5	-0,9
3,661	27,0	-1,4
3,6615	21,3	-2,3
3,662	15,1	-4,9
3,6625	9,4	-8,5
3,663	6,0	-11,5
3,6635	5,9	-12,7
3,664	9,0	-12,5
3,6645	13,8	-12,1
3,665	18,5	-12,5
3,6655	21,7	-13,6
3,666	22,8	-14,5
3,6665	22,4	-14,8
3,667	20,9	-14,6
3,6675	18,9	-14,4
3,668	17,2	-14,2
3,6685	17,3	-14,3
3,669	19,7	-14,9
3,6695	23,4	-16,0
3,67	27,3	-17,4
3,6705	30,4	-18,9
3,671	32,0	-20,3
3,6715	31,4	-21,5
3,672	28,6	-22,4
3,6725	23,7	-23,0
3,673	18,1	-23,3
3,6735	14,1	-23,3
3,674	13,7	-23,0
3,6745	17,4	-22,5
3,675	24,2	-21,8
3,6755	31,9	-21,0
3,676	38,6	-19,7
3,6765	42,6	-17,9
3,677	43,1	-15,4
3,6775	40,9	-12,1
3,678	37,4	-8,2
3,6785	33,8	-4,1
3,679	30,4	-0,2
3,6795	28,3	3,3
3,68	28,0	6,4
3,6805	29,7	9,4
3,681	32,5	12,3
3,6815	35,1	15,1
3,682	35,8	17,3
3,6825	33,6	18,3
3,683	28,4	17,7
3,6835	21,0	15,3
3,684	12,5	10,8
3,6845	4,7	4,8
3,685	-0,1	-1,7
3,6855	-1,3	-7,4
3,686	-0,1	-11,9
3,6865	1,8	-15,8
3,687	3,5	-19,7
3,6875	5,2	-23,9
3,688	6,9	-27,8
3,6885	8,1	-30,5
3,689	8,1	-31,3
3,6895	7,1	-30,0
3,69	6,2	-27,0
3,6905	6,8	-23,4
3,691	9,2	-20,0
3,6915	13,2	-17,5
3,692	18,3	-15,9
3,6925	23,7	-14,6
3,693	28,3	-13,1
3,6935	30,9	-11,0
3,694	31,1	-8,3
3,6945	29,6	-5,4
3,695	27,3	-2,9
3,6955	24,8	-1,1
3,696	22,8	0,0
3,6965	22,1	0,9
3,697	23,4	1,7
3,6975	26,8	2,4
3,698	31,4	3,0
