Interval=	0,0005 s
ExcelDateTime=	4,5911449846793708e+004	11/09/2025 10:47:46,762976
TimeFormat=	StartOfBlock
DateFormat=	
ChannelTitle=	Biceps	Triceps
Range=	1000,0 µV	1000,0 µV
0	-0,4	0,0
0,0005	-4,5	0,0
0,001	-16,6	-0,2
0,0015	-36,4	-0,9
0,002	-58,5	-2,1
0,0025	-76,2	-3,6
0,003	-86,9	-4,8
0,0035	-92,1	-5,3
0,004	-93,7	-5,3
0,0045	-93,3	-4,6
0,005	-92,3	-3,0
0,0055	-91,0	-0,7
0,006	-89,7	1,7
0,0065	-88,8	3,2
0,007	-88,5	3,4
0,0075	-88,7	2,7
0,008	-89,2	1,3
0,0085	-90,2	-0,5
0,009	-91,6	-2,3
0,0095	-93,2	-3,3
0,01	-94,1	-3,3
0,0105	-94,0	-2,4
0,011	-92,8	-0,8
0,0115	-90,4	1,3
0,012	-87,0	4,3
0,0125	-82,8	8,1
0,013	-78,0	12,1
0,0135	-73,5	15,5
0,014	-70,3	17,6
0,0145	-69,1	18,2
0,015	-69,8	17,9
0,0155	-71,6	17,2
0,016	-74,0	16,4
0,0165	-76,3	15,7
0,017	-78,5	14,9
0,0175	-80,9	13,7
0,018	-84,1	11,4
0,0185	-88,5	8,1
0,019	-93,4	4,3
0,0195	-98,0	1,1
0,02	-101,5	-1,1
0,0205	-103,8	-2,1
0,021	-105,1	-1,8
0,0215	-105,3	-0,4
0,022	-104,7	1,8
0,0225	-103,5	4,1
0,023	-102,3	5,7
0,0235	-101,8	6,0
0,024	-102,1	5,0
0,0245	-103,2	3,4
0,025	-104,9	1,7
0,0255	-106,5	0,5
0,026	-107,6	0,3
0,0265	-107,6	1,3
0,027	-106,3	3,0
0,0275	-104,0	5,1
0,028	-101,5	6,8
0,0285	-99,2	7,8
0,029	-97,7	7,8
0,0295	-97,1	6,6
0,03	-97,9	4,3
0,0305	-100,1	1,0
0,031	-103,3	-2,5
0,0315	-106,7	-5,5
0,032	-109,4	-7,3
0,0325	-111,1	-7,9
0,033	-111,9	-7,7
0,0335	-111,9	-7,0
0,034	-111,3	-6,3
0,0345	-110,4	-6,2
0,035	-110,0	-6,8
0,0355	-110,5	-8,2
0,036	-111,9	-9,8
0,0365	-114,0	-11,3
0,037	-116,1	-12,4
0,0375	-117,6	-12,6
0,038	-118,2	-11,6
0,0385	-117,9	-9,7
0,039	-117,1	-7,2
0,0395	-116,3	-5,0
0,04	-116,2	-3,7
0,0405	-116,5	-3,4
0,041	-117,1	-4,0
0,0415	-117,8	-4,6
0,042	-118,5	-4,9
0,0425	-119,3	-4,5
0,043	-119,8	-3,4
0,0435	-119,9	-1,5
0,044	-119,3	1,0
0,0445	-118,2	3,7
0,045	-117,1	6,3
0,0455	-116,3	8,1
0,046	-116,5	8,8
0,0465	-117,5	8,0
0,047	-119,2	5,9
0,0475	-121,3	2,8
0,048	-123,2	-0,1
0,0485	-124,2	-2,1
0,049	-124,0	-2,7
0,0495	-122,8	-2,5
0,05	-121,3	-2,2
0,0505	-120,2	-2,1
0,051	-119,8	-2,7
0,0515	-120,5	-4,3
0,052	-121,9	-6,4
0,0525	-123,6	-8,7
0,053	-124,9	-10,4
0,0535	-125,7	-11,5
0,054	-125,9	-11,9
0,0545	-125,6	-11,3
0,055	-124,8	-9,4
0,0555	-123,4	-6,5
0,056	-121,9	-3,3
0,0565	-120,9	-0,8
0,057	-120,8	0,6
0,0575	-121,5	0,9
0,058	-122,7	0,7
0,0585	-124,1	0,4
0,059	-125,6	0,3
0,0595	-126,9	0,8
0,06	-128,0	2,1
0,0605	-128,7	3,9
0,061	-129,0	5,8
0,0615	-129,1	7,6
0,062	-129,0	9,2
0,0625	-128,8	10,2
0,063	-128,8	10,5
0,0635	-128,9	10,0
0,064	-129,2	8,8
0,0645	-129,5	7,4
0,065	-129,9	6,0
0,0655	-130,7	4,9
0,066	-131,7	4,0
0,0665	-133,0	3,2
0,067	-134,5	2,1
0,0675	-136,2	0,5
0,068	-138,4	-2,1
0,0685	-141,0	-5,3
0,069	-143,1	-8,2
0,0695	-143,8	-9,7
0,07	-143,2	-9,5
0,0705	-141,9	-8,1
0,071	-140,4	-6,0
0,0715	-138,7	-3,5
0,072	-136,6	-0,8
0,0725	-134,0	2,0
0,073	-131,1	4,4
0,0735	-127,8	6,4
0,074	-124,5	8,5
0,0745	-121,5	10,8
0,075	-119,3	13,0
0,0755	-118,5	14,5
0,076	-119,2	14,9
0,0765	-120,9	14,8
0,077	-122,5	14,6
0,0775	-123,5	15,0
0,078	-123,7	16,2
0,0785	-123,1	18,2
0,079	-122,1	20,3
0,0795	-121,2	21,6
0,08	-120,9	21,6
0,0805	-121,5	20,3
0,081	-122,8	18,7
0,0815	-124,2	17,2
0,082	-125,3	16,2
0,0825	-125,9	15,4
0,083	-126,3	14,8
0,0835	-126,7	14,2
0,084	-127,1	13,2
0,0845	-128,0	11,3
0,085	-129,7	8,6
0,0855	-131,8	5,8
0,086	-133,9	3,5
0,0865	-135,5	2,4
0,087	-136,7	2,1
0,0875	-137,6	2,5
0,088	-137,9	3,3
0,0885	-137,4	5,0
0,089	-135,8	7,5
0,0895	-133,2	10,7
0,09	-129,9	14,4
0,0905	-126,6	17,9
0,091	-124,0	20,8
0,0915	-122,4	22,5
0,092	-121,7	23,2
0,0925	-120,9	23,4
0,093	-119,3	24,0
0,0935	-116,6	25,7
0,094	-113,3	28,4
0,0945	-110,0	31,4
0,095	-107,2	34,3
0,0955	-105,1	36,5
0,096	-103,9	37,9
0,0965	-103,5	38,1
0,097	-103,9	36,8
0,0975	-105,0	34,1
0,098	-106,7	31,0
0,0985	-108,5	28,5
0,099	-110,4	26,8
0,0995	-112,2	25,4
0,1	-113,5	24,0
0,1005	-114,3	22,6
0,101	-114,8	20,9
0,1015	-115,8	18,9
0,102	-117,8	16,5
0,1025	-120,2	14,3
0,103	-122,4	12,8
0,1035	-123,9	12,1
0,104	-124,7	12,5
0,1045	-124,6	14,0
0,105	-123,4	16,8
0,1055	-121,1	20,7
0,106	-118,1	25,0
0,1065	-115,0	28,7
0,107	-112,7	31,0
0,1075	-111,7	31,4
0,108	-111,8	30,2
0,1085	-112,7	28,3
0,109	-113,5	26,6
0,1095	-113,6	26,2
0,11	-112,7	27,1
0,1105	-110,6	29,2
0,111	-107,5	32,1
0,1115	-103,5	35,6
0,112	-99,0	39,5
0,1125	-94,6	43,0
0,113	-91,0	45,4
0,1135	-88,8	46,1
0,114	-88,0	45,0
0,1145	-88,6	42,9
0,115	-89,4	40,6
0,1155	-90,1	38,8
0,116	-90,1	37,6
0,1165	-90,0	36,5
0,117	-90,2	35,4
0,1175	-90,9	34,1
0,118	-92,4	32,4
0,1185	-94,1	30,7
0,119	-95,5	29,4
0,1195	-96,0	29,2
0,12	-95,7	30,0
0,1205	-94,8	31,7
0,121	-94,0	33,6
0,1215	-93,3	35,7
0,122	-92,6	37,7
0,1225	-92,0	39,1
0,123	-92,1	39,4
0,1235	-92,9	38,6
0,124	-94,1	37,1
0,1245	-95,1	35,8
0,125	-95,7	34,9
0,1255	-95,9	34,4
0,126	-95,7	34,3
0,1265	-95,1	34,7
0,127	-94,0	35,8
0,1275	-92,5	37,4
0,128	-90,8	39,3
0,1285	-88,8	41,6
0,129	-86,5	44,2
0,1295	-84,6	46,3
0,13	-83,8	47,2
0,1305	-84,3	46,4
0,131	-85,8	44,5
0,1315	-87,3	42,7
0,132	-88,3	41,7
0,1325	-88,9	41,2
0,133	-89,3	40,8
0,1335	-89,2	40,1
0,134	-88,5	39,2
0,1345	-87,4	38,0
0,135	-86,3	36,8
0,1355	-85,2	35,8
0,136	-84,3	35,4
0,1365	-83,4	35,5
0,137	-82,4	35,7
0,1375	-81,3	36,0
0,138	-79,6	37,0
0,1385	-77,2	39,1
0,139	-74,0	42,3
0,1395	-70,7	45,8
0,14	-67,6	48,8
0,1405	-65,3	51,0
0,141	-63,8	52,2
0,1415	-63,2	52,3
0,142	-63,0	51,7
0,1425	-63,1	50,9
0,143	-62,9	50,5
0,1435	-62,3	50,6
0,144	-61,3	51,3
0,1445	-60,1	52,3
0,145	-58,9	53,7
0,1455	-57,5	55,3
0,146	-55,8	56,8
0,1465	-54,1	57,9
0,147	-52,4	58,6
0,1475	-51,3	58,8
0,148	-50,7	58,7
0,1485	-50,6	58,7
0,149	-50,6	58,7
0,1495	-50,5	58,6
0,15	-49,9	58,3
0,1505	-49,0	58,1
0,151	-48,5	57,6
0,1515	-48,9	56,1
0,152	-50,5	53,6
0,1525	-52,8	50,6
0,153	-55,0	48,1
0,1535	-56,7	46,7
0,154	-57,8	46,6
0,1545	-58,3	47,6
0,155	-58,3	49,5
0,1555	-57,4	51,8
0,156	-56,0	53,9
0,1565	-54,7	55,4
0,157	-54,0	56,0
0,1575	-54,4	55,7
0,158	-55,8	54,8
0,1585	-57,5	53,5
0,159	-58,8	52,6
0,1595	-58,8	52,7
0,16	-57,1	54,2
0,1605	-53,9	56,9
0,161	-49,7	60,2
0,1615	-45,0	63,7
0,162	-40,6	66,9
0,1625	-36,8	69,4
0,163	-34,3	70,8
0,1635	-33,1	70,8
0,164	-33,3	69,6
0,1645	-34,2	67,6
0,165	-35,0	65,3
0,1655	-35,6	62,9
0,166	-35,6	60,6
0,1665	-35,3	58,4
0,167	-34,6	56,7
0,1675	-34,0	55,3
0,168	-33,9	53,5
0,1685	-34,6	51,1
0,169	-35,9	48,4
0,1695	-37,4	46,0
0,17	-38,6	44,6
0,1705	-39,3	44,6
0,171	-39,1	45,9
0,1715	-38,0	48,7
0,172	-36,0	52,6
0,1725	-33,6	56,9
0,173	-31,4	60,4
0,1735	-29,8	62,4
0,174	-28,3	63,3
0,1745	-27,0	63,7
0,175	-26,1	63,6
0,1755	-26,2	62,9
0,176	-27,0	62,0
0,1765	-27,7	61,6
0,177	-27,6	61,8
0,1775	-26,9	62,6
0,178	-25,7	63,5
0,1785	-24,2	64,3
0,179	-22,7	64,9
0,1795	-21,4	65,0
0,18	-20,7	64,3
0,1805	-20,6	62,9
0,181	-20,7	61,2
0,1815	-20,6	59,9
0,182	-20,1	59,4
0,1825	-19,6	59,3
0,183	-19,7	59,2
0,1835	-20,6	58,5
0,184	-22,1	57,2
0,1845	-24,0	55,2
0,185	-26,1	52,5
0,1855	-28,3	49,8
0,186	-30,2	47,7
0,1865	-31,8	46,5
0,187	-33,1	45,9
0,1875	-34,3	45,8
0,188	-35,0	46,2
0,1885	-34,4	47,4
0,189	-32,4	49,5
0,1895	-29,7	52,1
0,19	-27,1	54,4
0,1905	-25,4	56,3
0,191	-24,5	57,6
0,1915	-24,4	58,3
0,192	-25,0	58,4
0,1925	-25,6	58,2
0,193	-25,4	58,2
0,1935	-24,0	58,9
0,194	-21,5	60,8
0,1945	-18,7	63,6
0,195	-16,1	67,1
0,1955	-13,8	70,8
0,196	-12,0	74,1
0,1965	-11,1	75,7
0,197	-11,1	74,8
0,1975	-11,5	72,2
0,198	-11,1	70,0
0,1985	-9,7	69,3
0,199	-8,3	69,4
0,1995	-8,3	68,8
0,2	-9,8	66,7
0,2005	-12,5	63,4
0,201	-15,9	59,2
0,2015	-19,9	53,9
0,202	-24,3	47,8
0,2025	-28,4	41,8
0,203	-31,9	36,9
0,2035	-34,4	33,6
0,204	-35,8	32,3
0,2045	-35,9	32,9
0,205	-34,6	35,3
0,2055	-31,9	38,8
0,206	-28,3	42,7
0,2065	-24,8	46,2
0,207	-22,0	49,0
0,2075	-20,5	50,8
0,208	-20,1	51,5
0,2085	-20,7	51,0
0,209	-21,9	49,6
0,2095	-23,0	48,1
0,21	-23,3	47,3
0,2105	-22,3	48,0
0,211	-20,0	50,1
0,2115	-16,8	53,2
0,212	-12,7	56,7
0,2125	-8,7	59,7
0,213	-5,3	61,1
0,2135	-3,6	60,3
0,214	-3,8	57,5
0,2145	-5,3	53,8
0,215	-7,2	50,8
0,2155	-8,7	49,0
0,216	-9,3	48,5
0,2165	-9,7	48,5
0,217	-10,2	48,4
0,2175	-11,3	47,5
0,218	-13,2	45,3
0,2185	-16,0	41,4
0,219	-19,6	37,0
0,2195	-23,5	33,1
0,22	-27,3	30,2
0,2205	-30,4	28,6
0,221	-32,4	28,6
0,2215	-32,9	30,4
0,222	-32,1	34,0
0,2225	-30,5	38,2
0,223	-28,9	41,6
0,2235	-28,0	43,6
0,224	-27,6	44,3
0,2245	-27,5	44,5
0,225	-27,3	44,8
0,2255	-27,2	45,1
0,226	-27,3	45,3
0,2265	-27,3	45,8
0,227	-26,5	46,7
0,2275	-24,9	47,7
0,228	-22,9	48,5
0,2285	-20,8	49,1
0,229	-18,8	49,0
0,2295	-17,3	48,1
0,23	-16,5	46,2
0,2305	-16,8	43,3
0,231	-18,3	40,3
0,2315	-20,9	37,8
0,232	-24,2	36,3
0,2325	-27,5	35,7
0,233	-30,1	35,8
0,2335	-31,4	36,7
0,234	-31,7	38,0
0,2345	-31,7	38,6
0,235	-32,4	37,4
0,2355	-33,8	34,7
0,236	-35,1	31,7
0,2365	-36,0	29,4
0,237	-36,3	28,2
0,2375	-36,9	27,6
0,238	-37,8	27,6
0,2385	-38,3	28,4
0,239	-37,8	29,8
0,2395	-36,2	31,0
0,24	-34,8	30,9
0,2405	-34,3	29,1
0,241	-35,0	26,6
0,2415	-36,5	24,3
0,242	-38,1	22,8
0,2425	-39,3	22,2
0,243	-39,5	22,8
0,2435	-38,3	24,6
0,244	-36,0	27,5
0,2445	-33,1	31,4
0,245	-30,1	36,1
0,2455	-27,4	40,9
0,246	-25,4	44,8
0,2465	-24,4	46,7
0,247	-24,3	46,5
0,2475	-24,8	45,2
0,248	-25,4	43,8
0,2485	-26,0	42,5
0,249	-26,8	40,8
0,2495	-27,9	38,0
0,25	-29,2	34,3
0,2505	-30,7	30,3
0,251	-32,8	26,2
0,2515	-35,9	22,0
0,252	-39,9	17,7
0,2525	-44,2	13,7
0,253	-48,1	10,7
0,2535	-51,3	8,9
0,254	-53,4	8,4
0,2545	-54,1	9,1
0,255	-53,8	10,8
0,2555	-52,6	13,1
0,256	-51,1	15,7
0,2565	-49,8	18,0
0,257	-48,7	19,6
0,2575	-48,0	20,4
0,258	-47,9	20,7
0,2585	-48,6	20,4
0,259	-50,0	19,3
0,2595	-51,8	18,1
0,26	-53,3	17,3
0,2605	-54,1	17,4
0,261	-53,8	18,4
0,2615	-52,4	20,3
0,262	-49,9	23,1
0,2625	-46,6	26,3
0,263	-43,2	28,5
0,2635	-40,9	28,9
0,264	-40,3	27,3
0,2645	-41,3	24,7
0,265	-42,9	22,1
0,2655	-44,3	20,2
0,266	-45,2	19,0
0,2665	-46,2	18,3
0,267	-47,3	17,6
0,2675	-48,6	16,6
0,268	-50,5	14,7
0,2685	-53,2	11,8
0,269	-56,5	8,3
0,2695	-60,1	5,4
0,27	-63,0	3,9
0,2705	-64,8	3,8
0,271	-65,4	4,8
0,2715	-64,7	7,1
0,272	-63,2	10,4
0,2725	-61,2	13,9
0,273	-59,3	16,9
0,2735	-58,1	18,9
0,274	-57,8	19,9
0,2745	-58,3	20,0
0,275	-59,6	19,3
0,2755	-61,3	17,8
0,276	-62,6	16,0
0,2765	-63,1	14,7
0,277	-62,7	14,3
0,2775	-61,5	15,1
0,278	-60,0	16,9
0,2785	-58,2	19,3
0,279	-56,6	21,7
0,2795	-55,6	23,3
0,28	-55,6	23,5
0,2805	-56,7	22,6
0,281	-58,4	21,0
0,2815	-60,1	19,4
0,282	-61,5	18,0
0,2825	-62,5	16,7
0,283	-63,6	15,2
0,2835	-64,8	13,5
0,284	-65,9	11,7
0,2845	-67,0	9,8
0,285	-68,2	8,0
0,2855	-69,5	6,4
0,286	-70,8	5,4
0,2865	-71,8	5,1
0,287	-72,6	5,5
0,2875	-73,3	6,1
0,288	-73,8	6,8
0,2885	-74,1	7,7
0,289	-73,8	8,7
0,2895	-73,0	9,4
0,29	-72,0	9,9
0,2905	-71,0	10,3
0,291	-70,3	10,8
0,2915	-70,3	11,3
0,292	-70,8	11,3
0,2925	-71,5	11,1
0,293	-71,7	11,8
0,2935	-71,1	13,7
0,294	-70,0	16,5
0,2945	-69,1	19,2
0,295	-69,3	21,1
0,2955	-70,2	22,1
0,296	-71,7	22,3
0,2965	-73,3	21,5
0,297	-75,2	19,9
0,2975	-77,2	17,5
0,298	-79,0	15,1
0,2985	-80,5	12,9
0,299	-81,5	11,3
0,2995	-82,1	10,2
0,3	-82,8	9,3
0,3005	-83,5	8,4
0,301	-84,3	7,3
0,3015	-85,3	5,4
0,302	-86,4	3,0
0,3025	-87,2	0,7
0,303	-87,4	-0,9
0,3035	-86,6	-1,4
0,304	-84,7	-0,9
0,3045	-81,5	0,9
0,305	-77,5	3,9
0,3055	-73,0	8,0
0,306	-68,4	12,5
0,3065	-64,1	16,4
0,307	-60,9	19,3
0,3075	-59,2	20,9
0,308	-59,3	21,4
0,3085	-60,6	21,2
0,309	-62,8	20,4
0,3095	-64,9	20,0
0,31	-66,1	20,9
0,3105	-65,8	23,3
0,311	-64,3	27,1
0,3115	-61,9	31,4
0,312	-59,9	35,2
0,3125	-59,7	37,3
0,313	-62,2	36,7
0,3135	-67,6	33,0
0,314	-74,8	26,9
0,3145	-82,4	20,2
0,315	-88,7	14,3
0,3155	-92,8	9,7
0,316	-94,7	6,5
0,3165	-94,6	4,5
0,317	-93,0	3,5
0,3175	-90,8	3,3
0,318	-89,4	2,8
0,3185	-90,2	1,3
0,319	-92,9	-1,2
0,3195	-96,5	-3,5
0,32	-99,7	-4,7
0,3205	-102,1	-4,8
0,321	-103,8	-4,3
0,3215	-104,9	-3,7
0,322	-105,1	-2,8
0,3225	-104,6	-1,7
0,323	-103,5	-0,4
0,3235	-102,2	0,8
0,324	-100,8	2,0
0,3245	-99,7	3,1
0,325	-99,5	3,8
0,3255	-100,4	4,1
0,326	-102,3	4,4
0,3265	-104,4	5,3
0,327	-106,0	7,0
0,3275	-106,4	9,2
0,328	-105,4	11,6
0,3285	-103,3	13,8
0,329	-100,4	15,8
0,3295	-97,7	17,4
0,33	-95,4	18,6
0,3305	-94,0	19,2
0,331	-93,3	19,4
0,3315	-92,7	19,5
0,332	-92,3	19,7
0,3325	-92,0	20,0
0,333	-91,5	20,6
0,3335	-90,8	21,1
0,334	-89,8	21,1
0,3345	-89,3	19,9
0,335	-89,7	17,3
0,3355	-90,8	13,9
0,336	-91,9	10,8
0,3365	-92,7	8,8
0,337	-93,2	7,8
0,3375	-93,7	7,7
0,338	-94,0	8,6
0,3385	-94,1	10,3
0,339	-93,7	12,8
0,3395	-93,3	15,2
0,34	-93,3	16,8
0,3405	-93,9	17,4
0,341	-95,1	17,2
0,3415	-96,5	16,7
0,342	-97,8	16,2
0,3425	-99,0	16,4
0,343	-100,0	17,4
0,3435	-101,3	19,3
0,344	-102,7	21,3
0,3445	-104,3	23,3
0,345	-105,7	25,1
0,3455	-106,7	26,8
0,346	-107,0	28,0
0,3465	-106,8	28,4
0,347	-106,4	27,6
0,3475	-105,8	25,8
0,348	-104,3	24,1
0,3485	-101,9	23,3
0,349	-98,8	23,3
0,3495	-95,6	23,6
0,35	-92,5	23,6
0,3505	-89,5	23,1
0,351	-87,0	21,8
0,3515	-85,8	19,3
0,352	-86,1	15,9
0,3525	-87,2	12,6
0,353	-88,0	10,3
0,3535	-87,9	9,7
0,354	-86,8	10,4
0,3545	-85,4	11,8
0,355	-84,0	13,6
0,3555	-82,6	15,8
0,356	-80,9	18,2
0,3565	-79,2	20,3
0,357	-77,7	21,6
0,3575	-77,0	22,1
0,358	-77,2	22,2
0,3585	-78,3	22,1
0,359	-79,6	22,3
0,3595	-80,4	23,4
0,36	-80,2	25,9
0,3605	-78,9	29,8
0,361	-77,2	34,4
0,3615	-75,3	39,3
0,362	-73,4	44,3
0,3625	-71,5	48,6
0,363	-70,3	51,1
0,3635	-69,9	50,9
0,364	-70,8	47,7
0,3645	-72,8	42,1
0,365	-75,9	35,5
0,3655	-79,4	29,3
0,366	-82,3	24,7
0,3665	-84,0	22,0
0,367	-84,2	21,1
0,3675	-83,2	21,3
0,368	-81,8	21,9
0,3685	-80,9	22,0
0,369	-81,1	21,3
0,3695	-82,6	20,0
0,37	-85,0	18,8
0,3705	-87,5	17,8
0,371	-89,3	17,5
0,3715	-89,7	18,1
0,372	-88,6	19,5
0,3725	-86,2	21,7
0,373	-83,0	24,2
0,3735	-80,1	26,2
0,374	-77,9	27,4
0,3745	-76,7	27,8
0,375	-76,0	27,9
0,3755	-75,4	28,0
0,376	-74,5	28,5
0,3765	-72,6	29,9
0,377	-69,6	32,2
0,3775	-66,2	35,2
0,378	-62,7	38,4
0,3785	-59,7	41,4
0,379	-57,5	43,8
0,3795	-56,5	45,1
0,38	-56,9	44,9
0,3805	-58,6	43,3
0,381	-60,9	40,7
0,3815	-63,0	38,4
0,382	-64,0	37,2
0,3825	-63,9	37,2
0,383	-63,4	37,5
0,3835	-63,3	37,5
0,384	-64,1	36,9
0,3845	-65,8	35,5
0,385	-68,1	33,0
0,3855	-71,1	29,8
0,386	-74,2	26,4
0,3865	-77,2	23,6
0,387	-79,7	21,8
0,3875	-81,6	21,0
0,388	-82,4	21,2
0,3885	-82,0	22,5
0,389	-80,5	24,8
0,3895	-78,4	27,3
0,39	-76,3	29,1
0,3905	-74,5	30,0
0,391	-73,2	30,0
0,3915	-72,3	29,5
0,392	-72,0	28,9
0,3925	-72,0	28,6
0,393	-71,8	29,1
0,3935	-70,9	30,5
0,394	-69,3	32,6
0,3945	-67,4	35,0
0,395	-65,5	37,6
0,3955	-63,7	39,9
0,396	-62,2	41,6
0,3965	-60,9	41,9
0,397	-60,0	40,8
0,3975	-59,6	38,8
0,398	-59,6	36,5
0,3985	-59,6	34,9
0,399	-59,6	34,4
0,3995	-59,7	34,6
0,4	-59,6	35,2
0,4005	-59,1	36,0
0,401	-58,5	36,3
0,4015	-58,5	35,4
0,402	-59,4	33,3
0,4025	-60,7	30,9
0,403	-61,8	29,6
0,4035	-62,1	30,0
0,404	-61,9	31,7
0,4045	-61,3	34,1
0,405	-60,4	36,7
0,4055	-59,0	39,4
0,406	-57,0	42,1
0,4065	-54,7	44,2
0,407	-52,9	45,3
0,4075	-52,0	45,4
0,408	-52,4	44,4
0,4085	-53,8	42,7
0,409	-55,7	40,3
0,4095	-57,3	38,4
0,41	-57,8	37,5
0,4105	-57,0	38,2
0,411	-55,5	40,0
0,4115	-53,9	42,3
0,412	-52,7	44,6
0,4125	-52,0	46,3
0,413	-52,0	47,1
0,4135	-52,8	46,5
0,414	-54,4	44,9
0,4145	-56,6	42,5
0,415	-58,7	40,3
0,4155	-60,5	38,5
0,416	-61,5	37,2
0,4165	-61,7	36,5
0,417	-60,9	36,5
0,4175	-59,6	36,7
0,418	-58,6	36,5
0,4185	-58,4	35,3
0,419	-58,9	33,7
0,4195	-59,4	32,3
0,42	-59,6	31,8
0,4205	-59,3	32,0
0,421	-58,3	33,3
0,4215	-56,3	35,7
0,422	-53,0	39,3
0,4225	-49,4	43,1
0,423	-46,5	45,8
0,4235	-45,2	46,5
0,424	-45,3	45,4
0,4245	-46,4	43,4
0,425	-47,5	41,3
0,4255	-48,2	39,9
0,426	-48,0	39,3
0,4265	-47,3	39,7
0,427	-46,5	40,8
0,4275	-45,8	42,3
0,428	-45,2	44,0
0,4285	-44,2	46,2
0,429	-42,8	48,9
0,4295	-40,9	51,7
0,43	-38,8	53,8
0,4305	-36,8	54,9
0,431	-35,5	54,8
0,4315	-34,8	53,8
0,432	-34,9	52,2
0,4325	-35,9	50,2
0,433	-37,8	47,5
0,4335	-40,4	44,1
0,434	-43,7	39,9
0,4345	-47,6	35,1
0,435	-52,0	29,6
0,4355	-56,4	24,3
0,436	-59,9	20,8
0,4365	-62,1	19,8
0,437	-62,8	20,8
0,4375	-62,3	22,9
0,438	-61,1	25,3
0,4385	-59,2	27,9
0,439	-56,8	30,7
0,4395	-54,3	33,3
0,44	-52,3	35,0
0,4405	-51,4	35,7
0,441	-51,5	35,5
0,4415	-52,3	35,1
0,442	-53,8	34,4
0,4425	-55,4	33,6
0,443	-56,4	33,2
0,4435	-56,2	33,9
0,444	-54,6	36,1
0,4445	-52,0	39,6
0,445	-49,1	43,3
0,4455	-46,1	46,3
0,446	-43,4	47,7
0,4465	-41,6	47,4
0,447	-40,8	45,7
0,4475	-40,9	43,4
0,448	-41,7	41,4
0,4485	-42,3	40,1
0,449	-42,2	39,8
0,4495	-41,0	40,2
0,45	-39,1	40,8
0,4505	-37,6	41,1
0,451	-37,8	40,1
0,4515	-40,2	37,6
0,452	-44,1	33,9
0,4525	-48,3	30,1
0,453	-51,6	27,1
0,4535	-53,6	25,6
0,454	-54,5	25,3
0,4545	-54,3	26,3
0,455	-53,1	28,5
0,4555	-50,9	32,0
0,456	-48,4	36,2
0,4565	-46,3	39,8
0,457	-45,3	42,4
0,4575	-45,5	43,8
0,458	-46,4	44,3
0,4585	-47,7	43,9
0,459	-48,7	43,2
0,4595	-49,0	42,8
0,46	-48,6	43,3
0,4605	-47,5	44,5
0,461	-46,3	45,9
0,4615	-45,0	47,2
0,462	-43,6	48,2
0,4625	-42,1	49,0
0,463	-40,8	49,1
0,4635	-40,2	48,2
0,464	-40,3	46,2
0,4645	-41,2	43,4
0,465	-42,1	40,4
0,4655	-42,8	38,0
0,466	-43,0	36,4
0,4665	-43,0	35,7
0,467	-42,7	35,5
0,4675	-42,3	35,4
0,468	-42,0	34,8
0,4685	-42,3	33,6
0,469	-43,2	32,3
0,4695	-44,4	31,3
0,47	-45,8	31,0
0,4705	-47,0	31,0
0,471	-48,0	31,4
0,4715	-48,4	32,3
0,472	-48,3	33,8
0,4725	-48,2	35,4
0,473	-48,5	36,6
0,4735	-49,4	36,9
0,474	-50,7	36,4
0,4745	-52,0	35,5
0,475	-53,3	34,4
0,4755	-54,3	33,3
0,476	-54,8	32,7
0,4765	-54,3	33,0
0,477	-52,8	34,2
0,4775	-50,7	35,9
0,478	-48,5	37,8
0,4785	-46,4	39,9
0,479	-44,2	41,9
0,4795	-41,8	43,7
0,48	-39,7	44,7
0,4805	-38,6	44,5
0,481	-38,7	43,0
0,4815	-39,8	40,8
0,482	-41,3	38,4
0,4825	-42,3	36,2
0,483	-42,5	34,5
0,4835	-41,6	33,7
0,484	-39,6	33,7
0,4845	-37,3	33,8
0,485	-36,0	33,3
0,4855	-36,5	32,0
0,486	-38,5	30,1
0,4865	-40,9	28,2
0,487	-42,8	26,5
0,4875	-44,3	25,1
0,488	-45,4	24,1
0,4885	-45,9	23,9
0,489	-45,6	24,9
0,4895	-44,4	26,9
0,49	-42,9	29,5
0,4905	-41,5	31,9
0,491	-40,3	34,0
0,4915	-39,2	35,8
0,492	-38,4	37,3
0,4925	-38,2	38,5
0,493	-38,5	39,7
0,4935	-39,4	41,3
0,494	-40,2	43,5
0,4945	-40,5	45,9
0,495	-40,3	47,9
0,4955	-39,5	49,2
0,496	-38,3	49,8
0,4965	-37,2	49,5
0,497	-36,6	47,8
0,4975	-36,7	44,8
0,498	-37,3	41,2
0,4985	-37,8	38,1
0,499	-37,7	36,1
0,4995	-37,2	34,9
0,5	-36,5	34,2
0,5005	-35,6	33,4
0,501	-34,8	32,3
0,5015	-34,1	30,9
0,502	-33,8	29,0
0,5025	-33,9	27,0
0,503	-34,4	25,4
0,5035	-35,1	24,5
0,504	-35,9	24,5
0,5045	-36,6	25,4
0,505	-37,1	27,1
0,5055	-37,2	29,5
0,506	-36,8	32,0
0,5065	-36,3	34,2
0,507	-36,0	35,6
0,5075	-35,8	36,2
0,508	-35,8	36,2
0,5085	-35,8	35,9
0,509	-36,0	35,4
0,5095	-36,3	35,3
0,51	-36,2	35,9
0,5105	-35,6	37,5
0,511	-34,6	39,6
0,5115	-33,6	41,4
0,512	-33,0	42,3
0,5125	-33,0	42,4
0,513	-33,9	41,5
0,5135	-35,4	39,9
0,514	-37,4	37,9
0,5145	-39,5	35,7
0,515	-41,2	33,8
0,5155	-42,4	32,6
0,516	-43,3	32,0
0,5165	-44,3	31,7
0,517	-45,8	31,2
0,5175	-48,0	30,0
0,518	-51,1	27,4
0,5185	-54,8	23,6
0,519	-58,3	19,6
0,5195	-61,0	16,8
0,52	-62,5	15,7
0,5205	-62,8	16,2
0,521	-61,8	17,9
0,5215	-59,3	20,9
0,522	-55,4	25,4
0,5225	-50,8	30,8
0,523	-46,7	35,7
0,5235	-43,4	39,1
0,524	-40,7	40,9
0,5245	-38,3	41,7
0,525	-36,0	42,0
0,5255	-34,0	42,1
0,526	-32,2	41,9
0,5265	-30,7	41,6
0,527	-29,8	41,2
0,5275	-29,1	41,0
0,528	-28,4	41,4
0,5285	-27,2	42,6
0,529	-25,6	44,4
0,5295	-24,3	45,9
0,53	-24,1	46,4
0,5305	-25,2	45,3
0,531	-27,3	42,7
0,5315	-29,3	39,9
0,532	-30,7	38,0
0,5325	-31,1	37,1
0,533	-30,9	36,9
0,5335	-30,5	36,8
0,534	-30,2	36,4
0,5345	-30,2	35,5
0,535	-30,8	33,7
0,5355	-32,0	31,1
0,536	-33,3	28,6
0,5365	-34,1	27,2
0,537	-34,2	27,0
0,5375	-33,6	27,8
0,538	-32,2	29,4
0,5385	-30,0	31,7
0,539	-27,3	34,5
0,5395	-24,6	37,3
0,54	-22,3	39,6
0,5405	-20,7	40,9
0,541	-20,0	41,4
0,5415	-20,3	41,0
0,542	-21,8	39,8
0,5425	-24,2	38,2
0,543	-26,5	36,8
0,5435	-27,8	36,3
0,544	-27,8	37,0
0,5445	-26,6	38,6
0,545	-24,7	41,0
0,5455	-22,7	43,9
0,546	-21,6	46,3
0,5465	-22,5	47,0
0,547	-26,0	45,5
0,5475	-31,4	41,9
0,548	-37,4	37,6
0,5485	-42,7	33,8
0,549	-46,2	31,4
0,5495	-47,7	30,6
0,55	-47,1	31,0
0,5505	-45,3	32,0
0,551	-43,3	32,8
0,5515	-42,3	32,4
0,552	-43,0	30,3
0,5525	-45,2	27,3
0,553	-48,1	24,4
0,5535	-50,3	22,6
0,554	-50,9	22,1
0,5545	-49,7	23,1
0,555	-47,0	25,5
0,5555	-43,1	29,3
0,556	-38,6	33,6
0,5565	-34,8	37,0
0,557	-32,4	38,6
0,5575	-31,2	38,7
0,558	-30,9	37,7
0,5585	-31,1	36,3
0,559	-31,6	34,8
0,5595	-31,8	33,9
0,56	-31,0	34,2
0,5605	-28,9	36,1
0,561	-25,3	39,3
0,5615	-20,8	43,4
0,562	-15,9	47,6
0,5625	-11,3	51,2
0,563	-7,4	53,3
0,5635	-5,0	53,8
0,564	-4,2	52,4
0,5645	-4,4	50,0
0,565	-4,8	47,6
0,5655	-4,8	46,0
0,566	-4,7	45,2
0,5665	-4,8	44,6
0,567	-5,4	43,8
0,5675	-6,7	42,3
0,568	-9,3	39,6
0,5685	-13,5	35,8
0,569	-19,3	31,4
0,5695	-25,8	27,5
0,57	-32,1	24,7
0,5705	-37,6	22,9
0,571	-42,1	22,0
0,5715	-45,4	21,8
0,572	-47,3	22,6
0,5725	-47,8	24,6
0,573	-47,0	27,8
0,5735	-45,8	32,1
0,574	-44,8	36,4
0,5745	-44,2	40,0
0,575	-43,5	42,4
0,5755	-42,9	43,7
0,576	-42,5	44,4
0,5765	-42,1	44,9
0,577	-41,3	45,4
0,5775	-39,8	45,8
0,578	-37,4	46,2
0,5785	-34,3	46,8
0,579	-30,3	47,7
0,5795	-26,3	47,9
0,58	-22,8	46,6
0,5805	-20,7	43,3
0,581	-20,2	38,4
0,5815	-20,7	33,2
0,582	-21,1	29,6
0,5825	-20,5	28,4
0,583	-19,0	29,6
0,5835	-17,2	31,8
0,584	-15,6	33,6
0,5845	-14,9	34,1
0,585	-15,3	32,6
0,5855	-16,6	29,6
0,586	-18,3	26,5
0,5865	-19,8	24,2
0,587	-21,1	23,0
0,5875	-22,0	22,6
0,588	-22,6	22,8
0,5885	-22,6	23,9
0,589	-21,9	25,8
0,5895	-20,9	27,9
0,59	-20,0	29,8
0,5905	-19,3	31,5
0,591	-18,8	32,8
0,5915	-18,6	33,7
0,592	-18,9	33,8
0,5925	-19,4	33,5
0,593	-19,6	33,5
0,5935	-19,0	34,2
0,594	-17,7	35,5
0,5945	-15,9	36,7
0,595	-14,1	37,6
0,5955	-12,8	38,3
0,596	-11,9	38,8
0,5965	-11,4	39,2
0,597	-11,2	39,2
0,5975	-11,3	38,6
0,598	-12,0	37,4
0,5985	-13,3	36,0
0,599	-14,5	35,0
0,5995	-14,8	35,1
0,6	-14,3	36,3
0,6005	-13,2	37,9
0,601	-12,4	38,8
0,6015	-12,6	38,6
0,602	-13,9	37,4
0,6025	-16,1	35,7
0,603	-19,0	33,6
0,6035	-22,3	31,4
0,604	-25,6	29,0
0,6045	-28,5	26,8
0,605	-30,4	25,5
0,6055	-30,9	25,2
0,606	-30,2	25,5
0,6065	-29,2	25,4
0,607	-28,6	24,8
0,6075	-28,9	23,8
0,608	-30,1	22,7
0,6085	-31,6	21,6
0,609	-32,8	21,2
0,6095	-33,0	22,0
0,61	-31,9	24,3
0,6105	-30,2	27,8
0,611	-28,3	31,7
0,6115	-26,8	35,2
0,612	-25,5	38,0
0,6125	-24,4	40,1
0,613	-24,1	41,0
0,6135	-24,8	40,4
0,614	-26,5	38,6
0,6145	-28,6	36,3
0,615	-30,3	34,3
0,6155	-31,1	32,9
0,616	-30,9	32,0
0,6165	-30,3	31,2
0,617	-29,6	29,8
0,6175	-29,3	27,8
0,618	-29,6	25,1
0,6185	-30,1	21,9
0,619	-30,6	18,9
0,6195	-30,9	16,9
0,62	-31,2	15,8
0,6205	-31,7	15,5
0,621	-32,1	15,7
0,6215	-32,2	16,6
0,622	-31,4	18,3
0,6225	-29,8	20,6
0,623	-28,1	23,1
0,6235	-26,5	25,1
0,624	-25,4	26,0
0,6245	-24,6	25,9
0,625	-24,1	25,3
0,6255	-24,0	24,3
0,626	-24,4	23,7
0,6265	-25,2	23,7
0,627	-25,7	24,6
0,6275	-25,4	26,6
0,628	-24,1	29,7
0,6285	-21,8	33,8
0,629	-19,0	38,4
0,6295	-16,1	42,3
0,63	-13,5	44,7
0,6305	-11,9	45,0
0,631	-11,7	43,6
0,6315	-12,6	41,2
0,632	-13,9	38,8
0,6325	-15,1	36,9
0,633	-15,8	35,8
0,6335	-16,0	35,2
0,634	-15,9	34,6
0,6345	-15,8	33,6
0,635	-16,5	31,6
0,6355	-18,0	28,7
0,636	-20,2	25,7
0,6365	-22,4	23,4
0,637	-24,2	21,9
0,6375	-25,1	21,3
0,638	-25,3	21,6
0,6385	-24,8	22,8
0,639	-23,7	25,0
0,6395	-22,3	27,7
0,64	-20,6	30,4
0,6405	-18,9	32,8
0,641	-17,5	34,7
0,6415	-16,4	35,8
0,642	-16,3	35,8
0,6425	-16,9	35,0
0,643	-17,8	34,1
0,6435	-18,4	33,8
0,644	-18,3	34,2
0,6445	-17,3	35,1
0,645	-15,3	36,4
0,6455	-12,3	38,2
0,646	-8,6	40,3
0,6465	-5,1	42,3
0,647	-2,8	43,4
0,6475	-2,8	42,9
0,648	-5,0	40,8
0,6485	-8,8	37,8
0,649	-12,8	34,7
0,6495	-15,6	32,3
0,65	-16,7	30,9
0,6505	-16,2	30,5
0,651	-15,2	30,4
0,6515	-14,8	29,7
0,652	-16,0	28,3
0,6525	-18,6	26,1
0,653	-22,3	23,6
0,6535	-26,2	21,2
0,654	-29,8	19,2
0,6545	-32,6	18,1
0,655	-34,2	18,4
0,6555	-34,3	19,9
0,656	-33,3	22,0
0,6565	-32,0	23,8
0,657	-30,7	25,0
0,6575	-29,6	25,7
0,658	-28,4	26,1
0,6585	-27,0	26,8
0,659	-25,1	28,0
0,6595	-22,9	29,6
0,66	-20,6	31,6
0,6605	-18,3	33,5
0,661	-16,1	35,3
0,6615	-14,2	36,8
0,662	-12,8	37,8
0,6625	-12,3	37,8
0,663	-12,6	37,1
0,6635	-13,8	35,8
0,664	-15,7	34,1
0,6645	-18,0	32,2
0,665	-20,1	30,5
0,6655	-21,5	29,2
0,666	-22,4	28,4
0,6665	-23,2	27,8
0,667	-24,2	26,8
0,6675	-25,6	25,5
0,668	-27,6	23,6
0,6685	-30,0	21,5
0,669	-32,4	19,8
0,6695	-34,4	18,8
0,67	-35,8	18,8
0,6705	-36,5	19,3
0,671	-36,2	20,1
0,6715	-34,5	21,3
0,672	-31,3	23,2
0,6725	-26,8	25,8
0,673	-22,0	28,6
0,6735	-17,9	30,8
0,674	-15,5	31,8
0,6745	-14,7	31,8
0,675	-15,1	30,8
0,6755	-16,1	29,3
0,676	-16,7	28,4
0,6765	-16,3	28,9
0,677	-14,5	31,0
0,6775	-11,5	34,0
0,678	-8,2	36,9
0,6785	-5,2	39,2
0,679	-3,1	40,3
0,6795	-2,3	40,3
0,68	-3,2	38,9
0,6805	-5,7	36,5
0,681	-9,2	33,6
0,6815	-12,9	30,7
0,682	-16,4	28,4
0,6825	-19,3	26,6
0,683	-21,5	25,1
0,6835	-23,3	23,4
0,684	-24,7	21,7
0,6845	-25,7	19,8
0,685	-26,4	17,7
0,6855	-26,9	15,6
0,686	-27,1	14,1
0,6865	-26,6	13,6
0,687	-25,5	14,2
0,6875	-23,8	15,5
0,688	-21,8	17,5
0,6885	-19,4	20,2
0,689	-16,7	23,4
0,6895	-13,7	26,5
0,69	-11,0	29,1
0,6905	-8,9	30,9
0,691	-7,5	32,1
0,6915	-6,9	32,7
0,692	-7,1	32,7
0,6925	-7,9	32,2
0,693	-8,9	31,6
0,6935	-9,5	31,5
0,694	-9,5	32,1
0,6945	-9,0	33,3
0,695	-8,3	35,0
0,6955	-7,3	37,1
0,696	-6,2	39,3
0,6965	-5,0	41,0
0,697	-4,0	41,7
0,6975	-3,9	40,7
0,698	-5,1	38,2
0,6985	-7,3	34,7
0,699	-10,3	30,8
0,6995	-13,6	27,2
0,7	-16,4	24,2
0,7005	-18,1	22,0
0,701	-18,7	20,4
0,7015	-19,1	18,7
0,702	-19,9	16,6
0,7025	-21,0	14,7
0,703	-22,0	13,3
0,7035	-22,5	12,6
0,704	-22,2	12,9
0,7045	-21,1	14,5
0,705	-19,3	17,6
0,7055	-17,3	21,9
0,706	-15,8	26,2
0,7065	-15,2	29,4
0,707	-15,5	31,0
0,7075	-16,3	31,3
0,708	-17,3	31,1
0,7085	-18,7	30,5
0,709	-20,2	29,8
0,7095	-21,5	29,2
0,71	-22,1	29,0
0,7105	-21,6	29,4
0,711	-20,1	30,5
0,7115	-17,8	32,2
0,712	-14,9	34,3
0,7125	-11,9	36,6
0,713	-9,2	38,6
0,7135	-7,3	39,5
0,714	-6,6	39,1
0,7145	-6,9	37,7
0,715	-7,7	35,9
0,7155	-8,3	34,6
0,716	-8,4	33,9
0,7165	-8,0	33,6
0,717	-7,7	33,1
0,7175	-7,8	31,8
0,718	-8,9	29,4
0,7185	-11,1	25,8
0,719	-13,8	21,7
0,7195	-16,5	18,2
0,72	-18,5	16,0
0,7205	-19,4	15,6
0,721	-19,1	17,3
0,7215	-17,6	21,1
0,722	-14,6	26,8
0,7225	-10,5	33,4
0,723	-6,1	39,7
0,7235	-2,7	44,1
0,724	-1,1	45,9
0,7245	-1,0	45,5
0,725	-2,1	43,9
0,7255	-3,8	41,9
0,726	-5,9	39,9
0,7265	-7,7	38,4
0,727	-8,9	37,3
0,7275	-9,6	36,5
0,728	-10,0	35,6
0,7285	-10,8	34,3
0,729	-11,7	32,6
0,7295	-12,6	30,8
0,73	-13,3	29,2
0,7305	-13,6	27,9
0,731	-13,8	26,9
0,7315	-13,5	26,3
0,732	-12,9	26,2
0,7325	-12,1	26,1
0,733	-11,6	25,8
0,7335	-11,8	25,0
0,734	-12,4	23,7
0,7345	-13,1	21,6
0,735	-14,0	18,5
0,7355	-15,6	14,6
0,736	-17,8	10,8
0,7365	-20,4	7,9
0,737	-22,9	6,2
0,7375	-24,7	5,5
0,738	-25,0	6,3
0,7385	-23,3	8,9
0,739	-19,5	13,7
0,7395	-14,6	20,0
0,74	-9,9	26,5
0,7405	-6,4	32,1
0,741	-4,4	36,2
0,7415	-3,7	38,6
0,742	-4,0	39,6
0,7425	-5,2	39,4
0,743	-6,7	39,2
0,7435	-7,6	39,5
0,744	-7,6	40,5
0,7445	-6,7	42,0
0,745	-5,6	43,4
0,7455	-4,4	44,4
0,746	-3,7	44,6
0,7465	-3,7	43,6
0,747	-5,2	41,2
0,7475	-8,1	37,3
0,748	-11,7	32,7
0,7485	-15,0	28,3
0,749	-17,2	25,5
0,7495	-18,0	24,7
0,75	-17,5	25,5
0,7505	-15,6	27,3
0,751	-13,0	29,3
0,7515	-10,7	30,5
0,752	-9,9	30,3
0,7525	-10,9	28,8
0,753	-13,4	26,4
0,7535	-16,5	23,8
0,754	-19,2	21,7
0,7545	-20,7	20,5
0,755	-20,5	20,5
0,7555	-18,8	21,6
0,756	-16,1	23,2
0,7565	-13,3	24,8
0,757	-10,8	26,2
0,7575	-8,4	27,3
0,758	-5,8	28,2
0,7585	-3,4	28,7
0,759	-1,8	28,6
0,7595	-1,3	28,2
0,76	-1,2	28,3
0,7605	-0,6	29,7
0,761	0,8	32,1
0,7615	2,8	35,0
0,762	5,2	37,7
0,7625	7,6	39,8
0,763	9,8	41,2
0,7635	11,5	41,7
0,764	12,5	41,0
0,7645	12,8	39,3
0,765	12,6	36,9
0,7655	12,2	34,6
0,766	12,2	33,0
0,7665	12,3	32,2
0,767	12,4	31,8
0,7675	11,9	31,1
0,768	10,6	29,4
0,7685	8,3	26,6
0,769	5,4	23,3
0,7695	2,3	20,5
0,77	-0,3	18,8
0,7705	-2,5	18,1
0,771	-4,3	18,0
0,7715	-5,6	18,5
0,772	-6,2	19,8
0,7725	-6,0	21,9
0,773	-5,3	24,3
0,7735	-4,6	26,1
0,774	-4,0	27,3
0,7745	-3,6	27,7
0,775	-3,4	27,4
0,7755	-3,6	26,7
0,776	-3,8	25,9
0,7765	-3,8	25,8
0,777	-3,1	26,7
0,7775	-1,4	28,5
0,778	1,3	31,0
0,7785	4,9	34,2
0,779	8,9	37,7
0,7795	12,5	40,6
0,78	14,8	42,1
0,7805	15,6	41,8
0,781	15,1	40,1
0,7815	13,7	37,8
0,782	11,8	35,5
0,7825	9,6	33,4
0,783	7,2	31,6
0,7835	4,8	30,1
0,784	2,7	28,8
0,7845	1,0	27,6
0,785	-0,5	26,0
0,7855	-2,1	23,8
0,786	-4,1	21,2
0,7865	-6,2	18,5
0,787	-8,3	16,2
0,7875	-9,9	14,8
0,788	-10,3	14,7
0,7885	-9,0	16,3
0,789	-5,9	19,4
0,7895	-1,8	23,3
0,79	2,7	26,8
0,7905	6,6	29,7
0,791	9,5	31,7
0,7915	11,5	33,2
0,792	12,6	34,0
0,7925	13,2	34,3
0,793	13,9	34,5
0,7935	14,8	35,2
0,794	16,2	36,3
0,7945	17,7	37,4
0,795	19,1	38,7
0,7955	20,3	40,2
0,796	21,1	41,8
0,7965	21,1	42,6
0,797	20,3	42,4
0,7975	18,7	40,9
0,798	16,4	38,6
0,7985	14,0	36,1
0,799	12,1	34,0
0,7995	10,8	32,6
0,8	10,1	31,7
0,8005	9,8	31,2
0,801	9,8	30,8
0,8015	9,8	29,9
0,802	9,3	28,2
0,8025	8,4	25,8
0,803	7,4	23,5
0,8035	6,8	21,7
0,804	6,4	20,6
0,8045	6,1	20,0
0,805	5,8	20,1
0,8055	5,9	20,9
0,806	6,4	22,4
0,8065	6,7	23,9
0,807	6,4	24,9
0,8075	5,9	25,4
0,808	5,2	25,5
0,8085	4,3	25,3
0,809	3,0	25,3
0,8095	1,8	25,8
0,81	1,3	27,4
0,8105	1,3	29,8
0,811	1,2	32,3
0,8115	0,8	34,1
0,812	0,1	35,0
0,8125	-0,2	35,3
0,813	-0,0	34,9
0,8135	0,4	34,2
0,814	0,9	32,9
0,8145	1,1	31,5
0,815	1,3	30,3
0,8155	1,7	29,6
0,816	2,3	29,4
0,8165	3,3	29,4
0,817	4,4	29,3
0,8175	5,7	28,7
0,818	6,7	27,1
0,8185	6,8	24,5
0,819	6,1	21,5
0,8195	5,1	19,1
0,82	4,4	18,0
0,8205	4,5	18,6
0,821	5,3	20,2
0,8215	6,4	22,3
0,822	8,1	24,6
0,8225	10,7	27,1
0,823	13,7	29,6
0,8235	16,0	31,2
0,824	16,7	31,3
0,8245	16,1	30,3
0,825	14,9	28,9
0,8255	13,9	27,5
0,826	13,2	26,4
0,8265	13,0	25,8
0,827	13,1	25,8
0,8275	13,3	26,7
0,828	13,4	28,2
0,8285	13,8	30,0
0,829	14,4	31,8
0,8295	15,4	33,3
0,83	16,4	34,3
0,8305	17,1	34,3
0,831	17,1	33,3
0,8315	16,6	31,3
0,832	15,4	28,9
0,8325	13,7	26,4
0,833	11,4	24,1
0,8335	9,2	22,1
0,834	7,4	20,7
0,8345	6,3	19,6
0,835	5,8	18,5
0,8355	5,3	17,5
0,836	4,7	16,8
0,8365	3,7	16,5
0,837	2,5	16,3
0,8375	1,3	16,3
0,838	1,0	16,9
0,8385	1,9	18,5
0,839	4,0	21,1
0,8395	6,8	23,9
0,84	9,4	26,3
0,8405	11,4	27,6
0,841	12,6	28,0
0,8415	13,3	27,8
0,842	13,7	27,4
0,8425	14,0	26,9
0,843	14,3	26,8
0,8435	14,9	27,4
0,844	15,7	28,4
0,8445	16,7	29,6
0,845	17,8	30,9
0,8455	19,0	32,2
0,846	20,3	33,3
0,8465	21,4	33,5
0,847	21,8	32,5
0,8475	21,2	30,3
0,848	20,0	27,7
0,8485	18,8	25,5
0,849	17,9	24,0
0,8495	17,3	23,3
0,85	16,8	22,8
0,8505	16,0	22,5
0,851	15,1	22,0
0,8515	13,6	20,9
0,852	11,1	19,0
0,8525	8,0	16,4
0,853	4,9	13,7
0,8535	2,7	11,6
0,854	1,8	10,7
0,8545	2,5	11,3
0,855	4,2	13,5
0,8555	6,4	16,7
0,856	8,1	19,9
0,8565	8,8	22,1
0,857	8,1	22,8
0,8575	6,4	22,2
0,858	4,4	20,8
0,8585	2,7	19,4
0,859	1,9	18,6
0,8595	2,4	19,2
0,86	4,6	21,5
0,8605	7,9	25,0
0,861	11,3	28,6
0,8615	13,9	31,5
0,862	15,5	33,5
0,8625	16,6	34,6
0,863	17,3	34,7
0,8635	17,9	33,8
0,864	18,4	32,6
0,8645	19,2	32,4
0,865	20,9	33,8
0,8655	23,3	36,7
0,866	25,5	39,5
0,8665	26,8	40,9
0,867	26,7	40,2
0,8675	25,6	37,8
0,868	23,7	34,1
0,8685	21,3	29,8
0,869	18,8	25,4
0,8695	16,4	21,9
0,87	14,3	19,6
0,8705	12,5	17,9
0,871	10,8	16,3
0,8715	9,7	15,1
0,872	9,4	14,8
0,8725	10,1	15,6
0,873	11,5	16,9
0,8735	13,0	18,2
0,874	14,3	19,1
0,8745	14,8	19,8
0,875	14,9	20,3
0,8755	14,5	20,7
0,876	14,1	21,1
0,8765	14,2	22,2
0,877	14,8	24,3
0,8775	15,7	27,0
0,878	16,3	29,9
0,8785	16,1	32,2
0,879	15,3	33,5
0,8795	14,2	33,9
0,88	12,8	33,2
0,8805	11,5	31,7
0,881	10,3	29,9
0,8815	9,1	28,3
0,882	8,3	27,3
0,8825	7,7	26,6
0,883	7,0	25,9
0,8835	6,3	25,4
0,884	5,5	25,0
0,8845	4,7	23,9
0,885	3,7	21,8
0,8855	2,7	18,8
0,886	1,8	15,7
0,8865	1,3	13,4
0,887	1,2	12,2
0,8875	1,6	11,7
0,888	2,8	12,4
0,8885	5,3	14,3
0,889	9,2	17,7
0,8895	13,9	21,8
0,89	18,6	25,6
0,8905	22,3	28,3
0,891	24,6	29,4
0,8915	25,5	29,3
0,892	25,2	28,4
0,8925	24,2	27,5
0,893	23,3	27,2
0,8935	23,2	28,2
0,894	23,9	30,2
0,8945	25,0	32,7
0,895	25,9	34,8
0,8955	26,3	36,2
0,896	26,1	36,6
0,8965	25,4	35,9
0,897	24,0	34,2
0,8975	22,0	31,7
0,898	19,5	29,3
0,8985	17,0	27,4
0,899	14,7	25,8
0,8995	12,6	24,2
0,9	10,7	22,3
0,9005	9,1	20,1
0,901	7,5	17,5
0,9015	5,4	14,2
0,902	2,4	10,3
0,9025	-1,2	6,4
0,903	-4,1	3,7
0,9035	-5,6	2,8
0,904	-5,6	3,5
0,9045	-5,0	5,0
0,905	-4,3	6,7
0,9055	-3,7	8,3
0,906	-2,9	10,1
0,9065	-1,8	11,9
0,907	-0,2	13,2
0,9075	1,7	14,0
0,908	3,7	14,4
0,9085	5,4	14,5
0,909	7,0	14,4
0,9095	8,5	14,7
0,91	10,3	15,8
0,9105	12,6	18,1
0,911	15,2	21,1
0,9115	17,5	24,1
0,912	19,4	26,6
0,9125	20,9	28,4
0,913	21,7	29,3
0,9135	21,6	29,2
0,914	20,6	27,9
0,9145	18,8	25,6
0,915	16,9	23,3
0,9155	15,4	21,7
0,916	14,3	21,1
0,9165	13,4	20,9
0,917	12,0	20,7
0,9175	10,1	19,7
0,918	7,6	17,7
0,9185	4,7	14,8
0,919	2,0	12,1
0,9195	-0,0	10,3
0,92	-1,4	9,7
0,9205	-2,7	9,7
0,921	-4,2	9,8
0,9215	-5,4	10,0
0,922	-6,0	10,4
0,9225	-5,4	11,3
0,923	-4,2	12,4
0,9235	-2,9	13,3
0,924	-1,9	13,6
0,9245	-1,4	13,3
0,925	-1,0	12,8
0,9255	-0,4	12,4
0,926	0,7	12,4
0,9265	2,9	13,4
0,927	6,1	15,9
0,9275	10,3	19,8
0,928	15,2	24,6
0,9285	20,1	29,4
0,929	24,3	33,6
0,9295	27,0	35,9
0,93	27,3	36,0
0,9305	25,4	34,0
0,931	21,9	30,7
0,9315	18,1	27,2
0,932	14,7	24,2
0,9325	12,0	21,9
0,933	10,2	20,0
0,9335	9,3	18,6
0,934	9,2	17,8
0,9345	9,4	17,0
0,935	9,0	15,4
0,9355	7,6	12,8
0,936	5,5	9,8
0,9365	3,7	7,4
0,937	2,6	6,3
0,9375	2,4	6,4
0,938	2,9	7,7
0,9385	4,2	9,9
0,939	6,2	12,7
0,9395	8,8	15,5
0,94	11,2	17,8
0,9405	13,1	19,8
0,941	14,2	21,8
0,9415	14,6	23,5
0,942	14,4	24,6
0,9425	13,9	25,0
0,943	13,6	25,0
0,9435	14,2	25,3
0,944	15,8	26,1
0,9445	17,9	27,5
0,945	20,1	29,0
0,9455	21,9	30,3
0,946	22,7	30,8
0,9465	22,4	29,7
0,947	20,9	26,7
0,9475	18,4	22,1
0,948	15,4	17,2
0,9485	12,4	13,0
0,949	10,2	10,3
0,9495	9,2	9,6
0,95	9,4	10,4
0,9505	10,0	11,8
0,951	10,5	12,6
0,9515	10,0	11,9
0,952	8,4	9,4
0,9525	5,8	6,0
0,953	2,3	2,5
0,9535	-1,3	-0,4
0,954	-4,4	-2,3
0,9545	-6,1	-2,7
0,955	-5,8	-1,2
0,9555	-3,5	1,9
0,956	0,0	5,8
0,9565	3,9	9,3
0,957	7,1	11,4
0,9575	9,0	12,2
0,958	9,6	11,8
0,9585	9,1	10,8
0,959	8,3	10,0
0,9595	7,6	9,9
0,96	7,6	11,0
0,9605	8,5	12,8
0,961	9,7	14,5
0,9615	10,6	16,0
0,962	11,1	17,3
0,9625	11,4	18,3
0,963	11,4	18,8
0,9635	11,2	18,6
0,964	10,7	17,6
0,9645	10,3	16,4
0,965	10,2	15,6
0,9655	10,5	15,4
0,966	10,7	15,5
0,9665	10,4	15,3
0,967	9,3	14,6
0,9675	7,5	13,1
0,968	4,9	10,5
0,9685	1,6	7,1
0,969	-2,0	3,2
0,9695	-5,2	-0,1
0,97	-7,5	-2,1
0,9705	-9,2	-2,5
0,971	-10,2	-1,8
0,9715	-10,5	-0,3
0,972	-9,8	2,3
0,9725	-8,0	5,9
0,973	-5,3	9,9
0,9735	-2,4	13,2
0,974	-0,2	15,2
0,9745	1,5	15,9
0,975	2,8	15,9
0,9755	3,7	15,6
0,976	4,0	14,9
0,9765	3,5	14,4
0,977	2,6	14,4
0,9775	1,8	15,1
0,978	1,6	16,2
0,9785	1,9	17,6
0,979	2,7	18,7
0,9795	3,4	19,1
0,98	3,5	18,2
0,9805	2,8	16,1
0,981	1,3	13,3
0,9815	-0,4	10,6
0,982	-1,5	9,0
0,9825	-1,8	8,5
0,983	-1,3	9,0
0,9835	-0,4	10,1
0,984	0,5	11,6
0,9845	0,9	12,8
0,985	0,2	12,6
0,9855	-1,6	11,0
0,986	-3,9	8,7
0,9865	-5,8	6,7
0,987	-6,9	5,4
0,9875	-7,1	4,5
0,988	-6,6	4,0
0,9885	-5,4	4,0
0,989	-3,6	4,8
0,9895	-1,4	5,8
0,99	0,4	6,5
0,9905	1,4	6,4
0,991	1,6	6,0
0,9915	1,4	6,1
0,992	1,2	6,8
0,9925	0,9	8,0
0,993	0,7	9,7
0,9935	0,6	12,0
0,994	0,9	14,8
0,9945	1,7	17,9
0,995	2,9	21,2
0,9955	4,7	24,2
0,996	6,5	26,3
0,9965	7,9	27,1
0,997	8,2	25,9
0,9975	6,6	22,4
0,998	3,1	17,0
0,9985	-1,8	10,8
0,999	-7,0	5,3
0,9995	-11,7	1,3
1	-15,2	-0,9
1,0005	-17,3	-1,4
1,001	-18,1	-1,0
1,0015	-18,2	-0,5
1,002	-18,3	-0,7
1,0025	-19,0	-1,6
1,003	-20,2	-3,1
1,0035	-21,6	-4,8
1,004	-22,8	-6,2
1,0045	-22,9	-7,0
1,005	-21,5	-6,6
1,0055	-18,2	-4,8
1,006	-13,5	-1,8
1,0065	-8,8	1,5
1,007	-5,3	3,9
1,0075	-3,5	5,2
1,008	-2,9	5,4
1,0085	-3,3	4,9
1,009	-4,0	4,0
1,0095	-4,6	3,2
1,01	-4,2	3,3
1,0105	-2,7	4,7
1,011	-0,5	7,1
1,0115	1,9	9,9
1,012	4,2	12,9
1,0125	5,9	15,6
1,013	6,6	17,5
1,0135	6,0	18,1
1,014	4,3	17,1
1,0145	2,0	15,1
1,015	-0,2	13,0
1,0155	-1,9	11,3
1,016	-3,0	10,4
1,0165	-3,5	10,1
1,017	-3,8	10,3
1,0175	-4,2	10,5
1,018	-5,0	10,1
1,0185	-6,5	8,5
1,019	-8,5	6,3
1,0195	-10,7	4,2
1,02	-12,7	2,8
1,0205	-14,0	2,4
1,021	-14,4	3,0
1,0215	-13,5	4,6
1,022	-11,2	7,0
1,0225	-8,3	9,6
1,023	-5,5	11,6
1,0235	-3,6	12,2
1,024	-3,3	11,2
1,0245	-4,4	8,9
1,025	-6,5	6,3
1,0255	-8,8	4,0
1,026	-10,2	3,1
1,0265	-10,1	3,8
1,027	-8,3	6,1
1,0275	-5,4	9,3
1,028	-2,2	12,2
1,0285	0,1	14,1
1,029	1,2	14,9
1,0295	0,9	14,5
1,03	-0,5	13,0
1,0305	-2,6	10,6
1,031	-4,8	7,8
1,0315	-6,3	5,5
1,032	-6,1	4,8
1,0325	-4,5	5,5
1,033	-2,2	7,0
1,0335	0,0	8,4
1,034	1,7	9,2
1,0345	2,2	9,1
1,035	1,3	7,8
1,0355	-0,9	5,6
1,036	-3,7	3,3
1,0365	-6,5	2,0
1,037	-9,0	1,4
1,0375	-11,4	1,3
1,038	-13,5	1,3
1,0385	-14,9	1,7
1,039	-15,2	2,5
1,0395	-14,4	3,4
1,04	-13,1	4,3
1,0405	-11,8	5,1
1,041	-10,8	6,0
1,0415	-10,0	7,2
1,042	-9,4	8,6
1,0425	-9,0	9,9
1,043	-8,6	10,9
1,0435	-8,0	11,9
1,044	-6,7	13,1
1,0445	-4,8	14,3
1,045	-2,4	15,7
1,0455	0,2	17,2
1,046	2,8	18,8
1,0465	4,7	19,8
1,047	5,5	19,6
1,0475	5,2	17,9
1,048	3,8	15,3
1,0485	2,1	12,7
1,049	0,6	10,6
1,0495	-0,3	9,3
1,05	-0,6	8,6
1,0505	-0,1	8,3
1,051	0,6	8,1
1,0515	0,8	7,1
1,052	0,1	5,4
1,0525	-1,2	3,4
1,053	-2,6	2,2
1,0535	-4,1	1,8
1,054	-5,9	1,9
1,0545	-7,8	2,2
1,055	-9,0	2,8
1,0555	-9,1	4,0
1,056	-8,2	5,8
1,0565	-6,8	7,8
1,057	-6,1	9,2
1,0575	-6,5	9,5
1,058	-7,9	9,0
1,0585	-10,0	8,1
1,059	-11,9	7,4
1,0595	-12,9	7,8
1,06	-12,7	9,4
1,0605	-11,4	12,2
1,061	-9,6	15,5
1,0615	-7,9	18,3
1,062	-6,5	20,3
1,0625	-5,1	21,6
1,063	-3,4	22,8
1,0635	-1,3	23,8
1,064	1,1	24,5
1,0645	3,5	24,9
1,065	6,1	25,4
1,0655	8,4	26,0
1,066	9,9	26,3
1,0665	10,2	25,8
1,067	9,9	24,9
1,0675	9,5	23,8
1,068	9,3	22,4
1,0685	8,5	20,3
1,069	6,9	17,5
1,0695	4,5	14,3
1,07	1,8	11,5
1,0705	-1,1	9,3
1,071	-4,3	7,4
1,0715	-7,6	6,1
1,072	-10,7	5,8
1,0725	-12,5	6,7
1,073	-12,8	8,8
1,0735	-12,0	11,1
1,074	-11,2	13,3
1,0745	-10,7	14,8
1,075	-10,6	15,3
1,0755	-10,9	14,9
1,076	-11,3	13,8
1,0765	-11,7	12,7
1,077	-11,4	12,1
1,0775	-10,4	12,3
1,078	-8,7	13,3
1,0785	-6,3	15,2
1,079	-3,5	17,8
1,0795	-0,8	20,2
1,08	1,3	21,6
1,0805	2,3	21,4
1,081	1,8	19,7
1,0815	0,7	17,1
1,082	-0,3	14,2
1,0825	-0,8	11,7
1,083	-1,0	9,7
1,0835	-0,8	8,2
1,084	-0,5	7,3
1,0845	-0,2	6,4
1,085	-0,7	5,0
1,0855	-1,9	3,1
1,086	-3,5	1,2
1,0865	-4,6	0,2
1,087	-4,8	0,2
1,0875	-4,2	1,1
1,088	-3,1	2,9
1,0885	-1,4	5,7
1,089	0,8	9,3
1,0895	3,1	13,2
1,09	5,0	16,2
1,0905	6,1	18,0
1,091	6,2	18,4
1,0915	5,3	17,9
1,092	3,9	16,8
1,0925	2,2	15,4
1,093	0,5	14,2
1,0935	-1,0	13,5
1,094	-2,2	13,4
1,0945	-2,8	14,1
1,095	-2,6	15,9
1,0955	-1,3	19,2
1,096	0,5	23,0
1,0965	2,3	25,8
1,097	3,4	26,9
1,0975	3,8	26,0
1,098	3,3	23,8
1,0985	2,3	21,0
1,099	1,1	18,4
1,0995	0,0	16,0
1,1	-0,8	13,8
1,1005	-1,1	11,6
1,101	-0,7	9,6
1,1015	-0,0	7,6
1,102	0,6	5,5
1,1025	0,8	3,7
1,103	0,4	2,4
1,1035	-0,3	1,7
1,104	-1,4	1,4
1,1045	-2,4	1,6
1,105	-2,8	2,4
1,1055	-2,3	3,9
1,106	-0,6	5,9
1,1065	1,2	7,7
1,107	2,2	8,5
1,1075	1,9	8,5
1,108	0,8	8,1
1,1085	-0,9	7,6
1,109	-2,9	7,0
1,1095	-4,7	6,5
1,11	-5,8	6,8
1,1105	-6,2	8,1
1,111	-5,8	10,3
1,1115	-4,8	13,0
1,112	-3,4	15,8
1,1125	-1,9	18,0
1,113	-1,0	19,0
1,1135	-1,0	18,5
1,114	-1,6	16,8
1,1145	-2,3	15,0
1,115	-2,7	13,8
1,1155	-2,3	13,6
1,116	-1,5	13,9
1,1165	-0,4	14,1
1,117	0,6	13,9
1,1175	1,5	13,2
1,118	2,0	11,7
1,1185	1,7	9,5
1,119	0,7	7,4
1,1195	-0,8	5,8
1,12	-2,8	4,6
1,1205	-4,9	3,5
1,121	-7,0	2,2
1,1215	-8,7	1,1
1,122	-9,9	0,7
1,1225	-10,9	1,1
1,123	-11,5	2,2
1,1235	-11,9	3,3
1,124	-12,2	4,2
1,1245	-12,7	4,7
1,125	-13,5	4,9
1,1255	-14,5	5,0
1,126	-15,4	5,4
1,1265	-15,8	6,5
1,127	-15,5	8,3
1,1275	-14,4	10,4
1,128	-12,5	12,4
1,1285	-9,7	14,2
1,129	-6,0	15,9
1,1295	-1,7	17,6
1,13	2,3	18,6
1,1305	4,9	18,0
1,131	5,6	15,4
1,1315	4,9	11,3
1,132	3,9	7,1
1,1325	3,4	3,8
1,133	3,6	2,2
1,1335	4,2	2,1
1,134	5,1	3,4
1,1345	5,5	5,0
1,135	4,8	5,7
1,1355	2,6	4,7
1,136	-0,8	2,1
1,1365	-4,7	-1,3
1,137	-8,7	-4,6
1,1375	-12,3	-7,6
1,138	-15,3	-9,8
1,1385	-17,3	-10,7
1,139	-17,8	-9,7
1,1395	-17,2	-7,2
1,14	-16,2	-3,9
1,1405	-15,1	-1,1
1,141	-14,2	0,7
1,1415	-13,2	1,2
1,142	-11,9	1,2
1,1425	-10,4	1,0
1,143	-8,6	1,3
1,1435	-6,6	2,3
1,144	-3,9	4,2
1,1445	-0,7	7,1
1,145	3,2	10,6
1,1455	7,3	14,6
1,146	10,9	18,2
1,1465	13,5	20,5
1,147	14,5	21,0
1,1475	14,0	19,7
1,148	12,5	17,5
1,1485	10,5	15,1
1,149	8,3	12,9
1,1495	5,9	11,0
1,15	3,5	9,3
1,1505	1,0	7,8
1,151	-1,3	6,2
1,1515	-3,6	4,2
1,152	-6,3	1,7
1,1525	-9,8	-1,1
1,153	-13,7	-3,8
1,1535	-17,5	-6,0
1,154	-20,5	-7,3
1,1545	-21,9	-7,4
1,155	-21,7	-6,0
1,1555	-19,9	-3,5
1,156	-17,0	-0,4
1,1565	-13,8	2,7
1,157	-10,8	4,9
1,1575	-8,6	6,1
1,158	-7,5	6,1
1,1585	-7,6	4,7
1,159	-8,5	2,5
1,1595	-9,7	0,3
1,16	-10,6	-0,7
1,1605	-10,8	0,1
1,161	-9,8	2,3
1,1615	-7,8	5,2
1,162	-5,4	8,3
1,1625	-3,1	10,9
1,163	-1,7	12,3
1,1635	-1,7	12,0
1,164	-3,2	10,0
1,1645	-5,7	7,2
1,165	-8,3	4,8
1,1655	-10,4	3,4
1,166	-12,1	3,1
1,1665	-13,6	3,1
1,167	-15,1	3,0
1,1675	-16,7	2,2
1,168	-18,6	0,3
1,1685	-21,1	-2,6
1,169	-23,9	-6,0
1,1695	-26,5	-8,7
1,17	-28,1	-9,8
1,1705	-28,4	-9,2
1,171	-27,5	-7,0
1,1715	-25,5	-3,5
1,172	-22,3	1,3
1,1725	-18,7	6,6
1,173	-15,4	11,4
1,1735	-13,5	14,8
1,174	-13,0	16,2
1,1745	-13,5	16,1
1,175	-14,5	14,9
1,1755	-15,8	13,1
1,176	-17,0	10,9
1,1765	-17,6	9,3
1,177	-17,3	8,8
1,1775	-16,1	9,3
1,178	-14,1	10,4
1,1785	-12,1	11,2
1,179	-10,7	11,1
1,1795	-10,3	10,1
1,18	-10,7	8,3
1,1805	-11,4	6,2
1,181	-12,0	4,3
1,1815	-12,3	3,1
1,182	-12,2	2,7
1,1825	-11,8	3,0
1,183	-11,1	3,7
1,1835	-10,5	4,5
1,184	-9,9	5,0
1,1845	-9,8	5,0
1,185	-10,7	4,0
1,1855	-12,7	1,9
1,186	-15,5	-0,7
1,1865	-18,3	-3,1
1,187	-20,6	-5,3
1,1875	-22,3	-7,6
1,188	-23,5	-9,7
1,1885	-24,0	-11,1
1,189	-23,9	-11,2
1,1895	-23,2	-10,1
1,19	-22,2	-8,5
1,1905	-21,3	-7,2
1,191	-20,5	-5,9
1,1915	-19,6	-4,5
1,192	-18,8	-3,0
1,1925	-18,9	-1,8
1,193	-20,0	-1,4
1,1935	-21,8	-1,8
1,194	-23,9	-2,7
1,1945	-25,3	-3,4
1,195	-25,4	-3,0
1,1955	-23,8	-0,8
1,196	-21,0	3,2
1,1965	-17,8	7,7
1,197	-14,9	11,7
1,1975	-13,0	14,5
1,198	-12,3	16,0
1,1985	-12,7	16,2
1,199	-13,7	15,6
1,1995	-14,6	14,3
1,2	-15,2	12,8
1,2005	-15,5	10,9
1,201	-15,8	8,6
1,2015	-16,7	5,3
1,202	-18,8	0,8
1,2025	-22,1	-4,3
1,203	-25,8	-8,8
1,2035	-29,2	-11,8
1,204	-31,8	-13,3
1,2045	-33,4	-13,3
1,205	-33,4	-11,7
1,2055	-31,9	-8,4
1,206	-29,2	-3,9
1,2065	-25,9	0,7
1,207	-22,8	4,5
1,2075	-20,2	7,1
1,208	-18,4	8,4
1,2085	-17,8	8,2
1,209	-18,1	6,8
1,2095	-19,0	5,4
1,21	-19,8	4,7
1,2105	-20,1	5,3
1,211	-19,5	7,1
1,2115	-17,6	10,2
1,212	-14,2	14,5
1,2125	-9,9	19,1
1,213	-6,1	22,8
1,2135	-3,7	24,8
1,214	-3,1	24,9
1,2145	-3,8	23,6
1,215	-4,8	21,8
1,2155	-5,3	19,9
1,216	-5,4	17,8
1,2165	-5,6	15,2
1,217	-6,7	11,8
1,2175	-9,0	7,6
1,218	-12,5	2,9
1,2185	-16,7	-2,1
1,219	-21,1	-6,9
1,2195	-25,2	-10,8
1,22	-28,4	-13,1
1,2205	-30,5	-14,2
1,221	-31,9	-14,4
1,2215	-32,7	-14,0
1,222	-32,9	-12,9
1,2225	-32,2	-11,0
1,223	-30,5	-8,8
1,2235	-28,2	-6,8
1,224	-25,8	-5,3
1,2245	-23,9	-4,1
1,225	-22,8	-3,3
1,2255	-23,0	-3,1
1,226	-23,8	-2,8
1,2265	-24,2	-1,4
1,227	-23,6	1,6
1,2275	-22,1	5,8
1,228	-20,4	10,0
1,2285	-18,9	13,5
1,229	-17,7	16,2
1,2295	-16,6	17,8
1,23	-15,8	18,4
1,2305	-15,4	17,7
1,231	-15,4	16,0
1,2315	-15,3	14,3
1,232	-14,8	12,8
1,2325	-14,2	11,5
1,233	-14,0	9,5
1,2335	-14,6	6,6
1,234	-15,9	2,6
1,2345	-18,0	-2,1
1,235	-20,7	-7,2
1,2355	-23,5	-11,5
1,236	-25,4	-14,2
1,2365	-25,8	-15,0
1,237	-24,5	-14,2
1,2375	-22,3	-12,3
1,238	-19,5	-9,2
1,2385	-16,4	-5,1
1,239	-13,6	-0,7
1,2395	-11,8	3,1
1,24	-11,2	5,3
1,2405	-11,8	5,6
1,241	-12,9	4,7
1,2415	-14,1	3,4
1,242	-14,9	2,4
1,2425	-15,6	2,1
1,243	-15,8	2,9
1,2435	-15,2	5,1
1,244	-13,7	8,5
1,2445	-11,3	12,6
1,245	-8,3	16,7
1,2455	-5,2	20,3
1,246	-2,7	23,0
1,2465	-1,2	24,2
1,247	-0,7	23,8
1,2475	-0,9	21,9
1,248	-1,4	19,3
1,2485	-2,0	16,8
1,249	-2,8	14,6
1,2495	-4,0	12,5
1,25	-5,6	10,5
1,2505	-7,4	8,4
1,251	-9,1	6,3
1,2515	-10,8	3,8
1,252	-12,7	0,8
1,2525	-15,0	-2,5
1,253	-17,5	-5,3
1,2535	-19,8	-7,3
1,254	-21,5	-8,5
1,2545	-22,4	-8,8
1,255	-22,1	-8,0
1,2555	-20,4	-5,8
1,256	-17,5	-2,1
1,2565	-14,0	1,9
1,257	-11,0	5,2
1,2575	-9,2	7,0
1,258	-9,3	7,2
1,2585	-11,0	6,1
1,259	-13,9	4,4
1,2595	-17,0	2,8
1,26	-19,4	1,9
1,2605	-20,8	2,0
1,261	-21,1	3,0
1,2615	-20,5	4,6
1,262	-19,3	6,5
1,2625	-17,5	8,5
1,263	-15,6	10,0
1,2635	-13,9	10,6
1,264	-12,5	10,3
1,2645	-11,4	9,5
1,265	-10,7	8,8
1,2655	-10,3	8,3
1,266	-10,1	8,0
1,2665	-9,7	7,7
1,267	-8,8	7,6
1,2675	-7,9	7,4
1,268	-7,6	6,6
1,2685	-8,5	4,9
1,269	-9,9	3,0
1,2695	-11,1	1,8
1,27	-11,8	1,7
1,2705	-12,3	2,3
1,271	-12,8	3,2
1,2715	-13,0	4,9
1,272	-12,5	7,6
1,2725	-11,5	11,0
1,273	-10,5	14,0
1,2735	-10,3	15,7
1,274	-10,8	15,8
1,2745	-11,8	14,7
1,275	-13,3	13,1
1,2755	-15,2	11,3
1,276	-17,1	9,6
1,2765	-18,6	8,8
1,277	-19,4	8,9
1,2775	-19,6	9,8
1,278	-19,4	10,8
1,2785	-18,9	12,0
1,279	-17,8	13,3
1,2795	-16,0	14,7
1,28	-14,1	15,5
1,2805	-12,7	15,2
1,281	-12,1	13,6
1,2815	-11,8	11,5
1,282	-11,4	10,0
1,2825	-10,7	9,5
1,283	-9,7	9,8
1,2835	-8,8	10,2
1,284	-8,6	9,8
1,2845	-9,4	8,2
1,285	-11,5	5,7
1,2855	-14,3	2,6
1,286	-16,7	-0,0
1,2865	-18,0	-1,6
1,287	-18,0	-1,8
1,2875	-16,9	-0,8
1,288	-15,0	1,1
1,2885	-12,8	3,5
1,289	-10,8	6,0
1,2895	-9,1	8,0
1,29	-7,8	9,2
1,2905	-7,0	9,5
1,291	-6,6	9,2
1,2915	-6,7	8,4
1,292	-7,3	7,3
1,2925	-8,8	5,7
1,293	-10,6	4,4
1,2935	-11,8	4,2
1,294	-11,8	5,6
1,2945	-10,4	8,8
1,295	-7,8	13,2
1,2955	-4,5	18,0
1,296	-1,4	22,2
1,2965	0,8	24,3
1,297	1,2	24,1
1,2975	-0,2	21,6
1,298	-2,6	18,1
1,2985	-4,6	14,8
1,299	-5,5	12,6
1,2995	-5,4	11,3
1,3	-5,1	10,1
1,3005	-5,1	8,4
1,301	-6,0	5,8
1,3015	-8,1	1,9
1,302	-11,1	-2,9
1,3025	-14,2	-7,5
1,303	-16,6	-10,4
1,3035	-17,8	-11,2
1,304	-18,0	-9,9
1,3045	-17,7	-7,3
1,305	-17,0	-3,7
1,3055	-16,0	0,5
1,306	-14,6	4,9
1,3065	-13,1	8,8
1,307	-11,8	11,6
1,3075	-11,2	13,0
1,308	-11,7	13,1
1,3085	-12,7	12,4
1,309	-13,8	11,3
1,3095	-14,5	10,2
1,31	-14,8	9,2
1,3105	-14,9	8,1
1,311	-15,1	7,2
1,3115	-15,2	6,5
1,312	-15,1	6,4
1,3125	-14,5	7,0
1,313	-13,6	8,2
1,3135	-12,8	9,2
1,314	-12,6	9,2
1,3145	-12,9	7,9
1,315	-13,5	5,6
1,3155	-14,2	3,2
1,316	-14,5	1,6
1,3165	-14,2	1,1
1,317	-13,1	1,6
1,3175	-11,7	2,3
1,318	-10,7	2,2
1,3185	-10,7	0,8
1,319	-11,8	-1,5
1,3195	-13,1	-3,8
1,32	-14,0	-5,3
1,3205	-14,3	-6,0
1,321	-14,2	-5,9
1,3215	-13,1	-4,8
1,322	-11,0	-2,5
1,3225	-7,9	0,7
1,323	-4,5	3,9
1,3235	-1,8	6,5
1,324	-0,5	8,2
1,3245	-0,5	9,1
1,325	-1,3	9,4
1,3255	-1,8	9,9
1,326	-1,4	11,3
1,3265	0,0	14,4
1,327	2,2	19,3
1,3275	4,4	25,1
1,328	6,0	30,8
1,3285	6,7	35,2
1,329	6,6	37,8
1,3295	5,7	38,2
1,33	4,3	36,6
1,3305	2,4	33,2
1,331	-0,2	28,3
1,3315	-3,3	22,8
1,332	-6,8	17,4
1,3325	-10,3	12,3
1,333	-13,9	7,4
1,3335	-17,3	2,2
1,334	-20,4	-3,4
1,3345	-23,3	-9,3
1,335	-26,0	-15,1
1,3355	-28,7	-19,8
1,336	-30,8	-22,6
1,3365	-31,8	-23,1
1,337	-31,7	-21,9
1,3375	-30,8	-19,8
1,338	-29,2	-17,0
1,3385	-26,9	-13,3
1,339	-23,9	-8,7
1,3395	-20,3	-4,0
1,34	-16,8	-0,0
1,3405	-13,5	2,8
1,341	-10,8	4,4
1,3415	-9,0	4,9
1,342	-8,2	4,5
1,3425	-8,2	3,7
1,343	-8,5	3,2
1,3435	-8,4	3,4
1,344	-7,8	4,3
1,3445	-7,0	5,7
1,345	-6,3	7,2
1,3455	-5,6	8,5
1,346	-5,0	9,6
1,3465	-5,0	10,1
1,347	-5,8	9,6
1,3475	-7,6	8,1
1,348	-9,9	5,9
1,3485	-11,9	3,8
1,349	-13,2	2,3
1,3495	-13,8	1,3
1,35	-14,2	0,5
1,3505	-15,1	-0,7
1,351	-17,2	-2,6
1,3515	-20,4	-5,3
1,352	-24,4	-8,5
1,3525	-28,7	-11,8
1,353	-32,6	-14,2
1,3535	-35,5	-15,3
1,354	-37,7	-15,5
1,3545	-38,9	-15,1
1,355	-39,1	-14,2
1,3555	-38,1	-12,4
1,356	-35,8	-9,6
1,3565	-32,9	-6,5
1,357	-30,0	-3,7
1,3575	-27,5	-1,8
1,358	-25,8	-0,9
1,3585	-25,1	-1,1
1,359	-25,5	-2,3
1,3595	-26,4	-3,9
1,36	-27,2	-4,8
1,3605	-27,3	-4,4
1,361	-26,4	-2,9
1,3615	-24,5	-0,7
1,362	-21,9	1,8
1,3625	-19,2	4,3
1,363	-16,9	6,3
1,3635	-15,5	7,5
1,364	-15,3	7,6
1,3645	-16,0	6,7
1,365	-17,0	5,4
1,3655	-17,7	4,3
1,366	-17,9	3,5
1,3665	-17,7	2,6
1,367	-17,6	1,5
1,3675	-17,6	-0,1
1,368	-18,3	-2,4
1,3685	-20,4	-5,4
1,369	-23,6	-8,8
1,3695	-27,0	-11,6
1,37	-29,4	-13,1
1,3705	-30,3	-13,2
1,371	-30,2	-12,4
1,3715	-29,6	-10,9
1,372	-29,0	-9,3
1,3725	-28,3	-7,4
1,373	-27,8	-5,9
1,3735	-27,4	-4,8
1,374	-27,3	-4,1
1,3745	-27,3	-3,8
1,375	-27,7	-4,1
1,3755	-28,6	-4,8
1,376	-29,9	-5,5
1,3765	-31,0	-5,4
1,377	-31,2	-4,2
1,3775	-30,2	-2,2
1,378	-28,2	0,3
1,3785	-25,9	3,3
1,379	-24,3	5,9
1,3795	-23,9	7,6
1,38	-24,8	7,5
1,3805	-26,8	5,4
1,381	-29,8	2,0
1,3815	-32,8	-1,1
1,382	-34,6	-2,5
1,3825	-35,0	-1,9
1,383	-34,4	-0,6
1,3835	-33,7	0,3
1,384	-33,2	0,2
1,3845	-33,0	-0,7
1,385	-33,3	-2,3
1,3855	-34,5	-4,6
1,386	-36,7	-7,6
1,3865	-39,8	-10,9
1,387	-42,9	-13,8
1,3875	-45,1	-15,6
1,388	-45,6	-16,1
1,3885	-44,2	-14,8
1,389	-41,2	-12,0
1,3895	-37,1	-8,2
1,39	-32,8	-4,4
1,3905	-29,3	-1,6
1,391	-27,0	-0,1
1,3915	-25,8	0,2
1,392	-25,6	-0,4
1,3925	-26,0	-1,7
1,393	-26,7	-2,8
1,3935	-27,2	-3,2
1,394	-27,2	-2,6
1,3945	-26,5	-1,1
1,395	-25,4	0,9
1,3955	-24,2	3,0
1,396	-23,1	4,4
1,3965	-22,5	4,6
1,397	-22,7	3,5
1,3975	-23,6	1,3
1,398	-25,1	-1,3
1,3985	-26,4	-3,5
1,399	-27,3	-4,8
1,3995	-27,9	-5,5
1,4	-28,3	-5,8
1,4005	-28,3	-6,0
1,401	-28,0	-6,3
1,4015	-27,7	-6,6
1,402	-27,8	-6,8
1,4025	-28,5	-6,8
1,403	-30,0	-6,4
1,4035	-31,8	-6,1
1,404	-33,9	-6,0
1,4045	-35,7	-5,7
1,405	-36,4	-4,7
1,4055	-35,7	-2,6
1,406	-33,6	0,1
1,4065	-31,3	2,5
1,407	-29,9	3,4
1,4075	-30,1	2,5
1,408	-31,7	-0,2
1,4085	-34,1	-3,9
1,409	-36,8	-7,5
1,4095	-38,9	-10,0
1,41	-40,1	-10,6
1,4105	-39,9	-9,5
1,411	-38,5	-7,1
1,4115	-36,5	-4,1
1,412	-34,0	-1,0
1,4125	-30,9	2,0
1,413	-27,0	4,6
1,4135	-23,0	6,6
1,414	-19,8	7,6
1,4145	-18,2	7,4
1,415	-18,1	6,4
1,4155	-19,0	4,5
1,416	-20,3	2,2
1,4165	-21,6	0,0
1,417	-22,3	-1,4
1,4175	-22,3	-2,2
1,418	-22,3	-2,8
1,4185	-22,5	-4,1
1,419	-23,4	-6,1
1,4195	-24,7	-8,2
1,42	-25,7	-9,6
1,4205	-26,4	-10,3
1,421	-26,8	-10,5
1,4215	-26,8	-10,1
1,422	-26,1	-8,9
1,4225	-24,6	-6,9
1,423	-22,5	-4,6
1,4235	-20,4	-2,5
1,424	-18,8	-1,1
1,4245	-18,0	-0,6
1,425	-18,0	-0,6
1,4255	-18,6	-1,0
1,426	-19,7	-1,5
1,4265	-20,5	-1,6
1,427	-20,7	-1,0
1,4275	-19,8	0,5
1,428	-17,8	2,7
1,4285	-15,3	5,0
1,429	-12,8	7,0
1,4295	-10,4	8,5
1,43	-8,7	9,1
1,4305	-7,6	8,6
1,431	-7,3	7,4
1,4315	-7,6	6,0
1,432	-8,0	5,0
1,4325	-8,2	4,7
1,433	-8,3	4,7
1,4335	-8,5	4,8
1,434	-8,6	4,5
1,4345	-8,7	3,7
1,435	-9,1	2,1
1,4355	-10,0	-0,2
1,436	-10,9	-2,1
1,4365	-11,5	-2,6
1,437	-11,4	-1,4
1,4375	-10,8	1,0
1,438	-10,3	3,8
1,4385	-9,8	6,6
1,439	-9,4	9,4
1,4395	-9,2	11,7
1,44	-9,2	13,0
1,4405	-9,6	12,9
1,441	-10,4	11,6
1,4415	-11,7	9,3
1,442	-13,5	6,6
1,4425	-16,2	3,8
1,443	-19,3	1,6
1,4435	-22,3	0,3
1,444	-24,6	-0,3
1,4445	-26,3	-0,5
1,445	-27,3	0,1
1,4455	-27,1	2,0
1,446	-25,4	5,9
1,4465	-22,4	11,0
1,447	-18,7	16,4
1,4475	-14,9	21,0
1,448	-11,8	24,1
1,4485	-9,9	25,5
1,449	-9,4	25,0
1,4495	-10,2	22,8
1,45	-11,4	19,4
1,4505	-12,7	15,3
1,451	-14,0	10,9
1,4515	-15,6	5,4
1,452	-18,0	-1,4
1,4525	-20,9	-8,8
1,453	-23,8	-15,6
1,4535	-26,2	-20,2
1,454	-27,3	-22,0
1,4545	-26,7	-21,0
1,455	-24,0	-17,5
1,4555	-19,3	-11,9
1,456	-13,1	-5,5
1,4565	-6,6	0,4
1,457	-1,2	4,4
1,4575	2,3	6,2
1,458	3,7	6,4
1,4585	3,5	5,5
1,459	2,3	4,2
1,4595	1,2	3,2
1,46	1,1	3,5
1,4605	2,1	5,1
1,461	4,0	7,6
1,4615	5,9	10,0
1,462	7,5	11,9
1,4625	8,5	13,4
1,463	8,8	14,0
1,4635	8,3	13,8
1,464	7,0	12,8
1,4645	5,1	11,7
1,465	3,0	11,2
1,4655	1,0	11,3
1,466	-1,3	11,4
1,4665	-4,3	11,2
1,467	-7,8	10,4
1,4675	-11,2	9,1
1,468	-14,0	7,2
1,4685	-15,8	4,8
1,469	-17,0	2,4
1,4695	-17,6	0,5
1,47	-17,7	-0,7
1,4705	-17,4	-1,3
1,471	-17,0	-1,3
1,4715	-16,6	-0,7
1,472	-15,9	0,7
1,4725	-15,0	2,3
1,473	-14,0	3,8
1,4735	-13,2	4,5
1,474	-12,8	4,2
1,4745	-12,8	3,0
1,475	-13,2	1,3
1,4755	-13,8	-0,3
1,476	-14,3	-1,4
1,4765	-14,3	-1,5
1,477	-13,5	-0,3
1,4775	-11,7	2,4
1,478	-8,9	6,0
1,4785	-5,5	9,9
1,479	-1,8	13,7
1,4795	1,3	16,2
1,48	3,2	17,1
1,4805	3,7	16,0
1,481	3,0	13,4
1,4815	1,7	10,3
1,482	0,5	7,6
1,4825	-0,2	5,9
1,483	-0,2	5,0
1,4835	0,2	4,6
1,484	0,6	4,4
1,4845	0,3	3,9
1,485	-1,5	2,1
1,4855	-4,8	-0,9
1,486	-8,8	-4,4
1,4865	-13,0	-7,3
1,487	-16,6	-9,0
1,4875	-19,5	-9,7
1,488	-21,7	-9,5
1,4885	-22,7	-8,2
1,489	-22,1	-5,8
1,4895	-20,0	-2,1
1,49	-17,5	1,7
1,4905	-15,3	5,0
1,491	-13,3	7,5
1,4915	-11,5	9,4
1,492	-10,3	10,8
1,4925	-9,8	11,3
1,493	-9,7	11,5
1,4935	-9,4	11,6
1,494	-8,7	12,0
1,4945	-7,3	12,7
1,495	-5,5	13,6
1,4955	-3,6	14,5
1,496	-1,7	15,1
1,4965	-0,2	14,9
1,497	0,7	14,1
1,4975	1,1	12,8
1,498	1,2	11,5
1,4985	1,4	11,0
1,499	1,8	11,6
1,4995	2,4	12,8
1,5	3,1	14,3
1,5005	3,8	15,4
1,501	4,2	15,8
1,5015	3,5	14,6
1,502	1,6	11,7
1,5025	-1,2	7,7
1,503	-4,1	3,9
1,5035	-6,4	1,1
1,504	-7,8	-0,8
1,5045	-8,2	-1,9
1,505	-7,6	-2,0
1,5055	-6,1	-0,7
1,506	-4,1	1,6
1,5065	-2,2	4,2
1,507	-0,4	6,4
1,5075	0,8	8,3
1,508	1,3	9,6
1,5085	0,5	10,2
1,509	-1,7	9,8
1,5095	-4,6	9,0
1,51	-7,0	8,4
1,5105	-8,2	8,6
1,511	-8,0	9,5
1,5115	-6,7	11,2
1,512	-4,7	13,7
1,5125	-2,5	16,4
1,513	-0,5	18,6
1,5135	0,9	19,9
1,514	1,7	20,2
1,5145	1,9	19,8
1,515	1,8	19,3
1,5155	1,5	18,7
1,516	1,0	18,0
1,5165	0,2	17,1
1,517	-1,2	15,8
1,5175	-2,8	14,3
1,518	-4,6	12,2
1,5185	-6,3	9,2
1,519	-7,4	5,7
1,5195	-7,4	2,5
1,52	-6,2	0,4
1,5205	-4,1	-0,7
1,521	-2,2	-1,3
1,5215	-1,1	-1,6
1,522	-0,5	-1,3
1,5225	0,3	-0,1
1,523	1,1	2,2
1,5235	1,5	4,4
1,524	1,2	5,8
1,5245	0,1	5,9
1,525	-1,7	4,9
1,5255	-4,1	3,1
1,526	-6,7	1,1
1,5265	-8,5	-0,3
1,527	-9,1	-0,4
1,5275	-8,1	1,1
1,528	-5,9	3,9
1,5285	-3,2	7,5
1,529	-0,7	11,2
1,5295	1,0	14,0
1,53	1,8	15,6
1,5305	1,4	16,1
1,531	0,5	16,5
1,5315	-0,3	17,7
1,532	-0,6	19,8
1,5325	-0,5	22,3
1,533	-0,3	24,3
1,5335	0,0	25,3
1,534	0,6	25,1
1,5345	1,2	23,5
1,535	1,3	20,4
1,5355	0,5	16,3
1,536	-1,1	11,8
1,5365	-2,5	8,1
1,537	-3,1	5,2
1,5375	-2,7	2,6
1,538	-1,9	-0,1
1,5385	-1,4	-2,5
1,539	-1,2	-4,0
1,5395	-0,5	-3,5
1,54	1,2	-1,1
1,5405	3,6	2,0
1,541	6,0	4,6
1,5415	7,6	6,0
1,542	8,1	6,1
1,5425	7,4	5,3
1,543	5,9	4,0
1,5435	4,1	3,1
1,544	2,8	3,1
1,5445	2,7	4,5
1,545	4,1	7,2
1,5455	6,8	10,9
1,546	10,0	15,0
1,5465	13,0	18,3
1,547	15,2	20,2
1,5475	16,3	20,6
1,548	16,7	20,1
1,5485	16,9	19,5
1,549	16,8	19,1
1,5495	16,0	18,5
1,55	14,4	17,4
1,5505	12,3	15,8
1,551	10,3	13,7
1,5515	8,3	10,8
1,552	5,7	6,8
1,5525	2,1	2,2
1,553	-1,9	-2,0
1,5535	-5,5	-5,1
1,554	-8,2	-6,9
1,5545	-9,9	-7,8
1,555	-10,7	-7,7
1,5555	-10,6	-6,6
1,556	-9,6	-4,5
1,5565	-8,2	-2,0
1,557	-6,9	0,3
1,5575	-6,2	1,8
1,558	-6,3	2,1
1,5585	-7,3	1,3
1,559	-9,0	-0,5
1,5595	-10,8	-2,3
1,56	-11,7	-2,9
1,5605	-11,2	-1,7
1,561	-9,5	0,8
1,5615	-7,2	3,8
1,562	-4,9	6,5
1,5625	-2,7	8,6
1,563	-0,9	9,9
1,5635	0,1	10,1
1,564	-0,0	8,8
1,5645	-1,1	6,3
1,565	-2,6	3,3
1,5655	-3,7	0,6
1,566	-4,2	-1,2
1,5665	-4,4	-2,2
1,567	-4,7	-2,7
1,5675	-5,1	-3,3
1,568	-5,9	-4,5
1,5685	-7,6	-6,6
1,569	-10,2	-9,0
1,5695	-13,1	-10,9
1,57	-15,8	-11,6
1,5705	-18,0	-11,1
1,571	-19,6	-9,7
1,5715	-20,3	-7,3
1,572	-19,8	-4,0
1,5725	-17,9	-0,1
1,573	-14,8	3,8
1,5735	-10,9	7,0
1,574	-6,9	9,2
1,5745	-3,3	10,5
1,575	-0,7	11,0
1,5755	1,1	11,1
1,576	2,2	11,1
1,5765	3,0	11,7
1,577	3,7	13,1
1,5775	4,6	15,3
1,578	6,0	17,7
1,5785	8,2	20,2
1,579	11,2	22,8
1,5795	14,9	25,3
1,58	18,8	27,7
1,5805	21,9	29,4
1,581	23,7	30,0
1,5815	23,9	29,7
1,582	22,5	28,3
1,5825	19,6	26,0
1,583	15,3	22,9
1,5835	10,2	19,3
1,584	5,0	15,8
1,5845	0,3	12,6
1,585	-4,0	9,5
1,5855	-8,2	6,3
1,586	-12,6	3,4
1,5865	-17,0	1,0
1,587	-21,1	-0,7
1,5875	-24,5	-1,6
1,588	-26,6	-1,8
1,5885	-27,3	-0,9
1,589	-26,8	0,5
1,5895	-25,3	1,5
1,59	-23,8	1,2
1,5905	-22,7	-0,3
1,591	-22,2	-2,3
1,5915	-22,1	-4,0
1,592	-22,4	-5,2
1,5925	-23,0	-6,2
1,593	-23,2	-6,8
1,5935	-22,1	-6,3
1,594	-19,4	-4,3
1,5945	-15,3	-1,0
1,595	-10,0	3,2
1,5955	-4,2	7,8
1,596	1,2	11,8
1,5965	5,3	14,3
1,597	7,5	14,5
1,5975	8,1	12,9
1,598	8,0	10,7
1,5985	8,4	9,2
1,599	9,9	9,2
1,5995	12,6	10,5
1,6	15,9	12,5
1,6005	18,9	14,3
1,601	20,9	14,7
1,6015	21,4	13,4
1,602	20,3	10,6
1,6025	18,0	7,4
1,603	15,1	4,8
1,6035	11,9	3,1
1,604	8,5	2,1
1,6045	5,4	1,5
1,605	3,2	1,5
1,6055	2,3	2,4
1,606	2,8	4,5
1,6065	4,1	7,6
1,607	5,4	10,9
1,6075	6,1	13,8
1,608	5,8	16,0
1,6085	4,3	17,1
1,609	1,8	17,3
1,6095	-1,3	16,9
1,61	-4,0	16,5
1,6105	-5,8	16,0
1,611	-6,5	15,5
1,6115	-6,2	15,3
1,612	-4,9	15,4
1,6125	-2,9	15,7
1,613	-0,4	15,5
1,6135	2,0	14,2
1,614	3,7	11,5
1,6145	4,3	7,8
1,615	4,6	4,5
1,6155	5,1	2,6
1,616	5,9	2,1
1,6165	6,5	2,4
1,617	6,3	2,6
1,6175	5,3	2,1
1,618	3,6	0,6
1,6185	1,5	-1,9
1,619	-0,5	-5,0
1,6195	-2,1	-7,7
1,62	-3,0	-9,0
1,6205	-3,3	-8,9
1,621	-3,0	-7,8
1,6215	-2,1	-6,3
1,622	-0,8	-4,7
1,6225	0,7	-2,9
1,623	2,3	-1,3
1,6235	3,6	-0,1
1,624	4,8	0,8
1,6245	5,9	1,7
1,625	6,8	2,8
1,6255	7,3	3,9
1,626	7,2	4,8
1,6265	6,6	5,5
1,627	6,3	6,3
1,6275	6,7	7,9
1,628	8,1	10,6
1,6285	10,3	13,8
1,629	12,6	16,9
1,6295	14,7	19,5
1,63	16,1	20,9
1,6305	16,7	21,1
1,631	16,3	20,1
1,6315	15,1	18,1
1,632	13,7	15,9
1,6325	12,7	14,2
1,633	12,7	13,4
1,6335	13,7	13,8
1,634	15,2	14,9
1,6345	16,3	15,8
1,635	16,2	15,6
1,6355	14,8	14,2
1,636	12,6	12,2
1,6365	9,9	10,0
1,637	7,2	7,9
1,6375	4,5	5,8
1,638	2,0	4,2
1,6385	0,3	3,8
1,639	-0,3	4,9
1,6395	0,1	7,6
1,64	1,3	10,6
1,6405	2,7	12,9
1,641	3,8	14,0
1,6415	4,5	13,9
1,642	4,6	13,0
1,6425	4,5	11,7
1,643	4,7	10,6
1,6435	5,7	10,2
1,644	7,6	10,7
1,6445	10,1	11,9
1,645	12,7	13,6
1,6455	15,2	15,5
1,646	17,5	17,3
1,6465	19,3	18,1
1,647	19,8	17,4
1,6475	19,0	15,0
1,648	17,4	11,9
1,6485	16,1	9,4
1,649	15,5	8,2
1,6495	15,6	8,3
1,65	16,0	9,3
1,6505	16,3	10,4
1,651	16,0	10,6
1,6515	14,8	9,4
1,652	12,4	6,9
1,6525	9,3	4,0
1,653	6,4	1,7
1,6535	4,2	0,0
1,654	2,5	-1,5
1,6545	1,2	-3,3
1,655	0,1	-4,9
1,6555	-0,8	-6,0
1,656	-1,5	-6,0
1,6565	-2,0	-4,9
1,657	-2,7	-3,5
1,6575	-3,5	-2,3
1,658	-4,3	-1,6
1,6585	-4,8	-1,2
1,659	-4,4	-0,8
1,6595	-3,2	0,2
1,66	-1,3	1,8
1,6605	1,4	4,3
1,661	4,7	7,1
1,6615	8,4	10,2
1,662	12,4	13,1
1,6625	16,6	15,7
1,663	20,4	17,7
1,6635	23,3	18,7
1,664	25,2	18,5
1,6645	26,0	17,3
1,665	26,1	15,4
1,6655	26,0	13,3
1,666	25,7	11,2
1,6665	25,3	9,3
1,667	24,7	7,6
1,6675	23,9	6,3
1,668	23,1	5,3
1,6685	21,9	4,2
1,669	20,1	2,8
1,6695	17,7	1,3
1,67	14,8	0,0
1,6705	11,7	-0,8
1,671	8,8	-0,8
1,6715	6,3	-0,1
1,672	4,8	1,1
1,6725	4,5	2,5
1,673	4,6	3,6
1,6735	4,6	3,9
1,674	4,3	3,2
1,6745	3,8	1,9
1,675	3,6	0,8
1,6755	4,1	-0,0
1,676	5,5	-0,1
1,6765	7,8	0,6
1,677	10,7	2,2
1,6775	13,7	4,2
1,678	16,1	6,3
1,6785	18,0	8,4
1,679	19,8	10,8
1,6795	21,8	13,3
1,68	23,7	15,1
1,6805	25,0	15,6
1,681	25,3	14,5
1,6815	24,8	12,7
1,682	24,3	11,4
1,6825	24,3	11,0
1,683	24,7	11,2
1,6835	25,0	11,3
1,684	24,7	10,9
1,6845	23,7	10,0
1,685	21,9	8,5
1,6855	19,8	7,0
1,686	18,0	6,1
1,6865	17,0	6,3
1,687	16,6	7,5
1,6875	16,5	9,3
1,688	16,7	11,4
1,6885	17,5	13,9
1,689	18,9	16,6
1,6895	20,3	18,9
1,69	20,2	19,7
1,6905	18,2	18,2
1,691	14,3	14,4
1,6915	9,3	9,4
1,692	4,2	4,5
1,6925	-0,5	0,5
1,693	-4,0	-2,1
1,6935	-5,6	-2,8
1,694	-4,9	-1,9
1,6945	-2,6	0,1
1,695	0,6	2,7
1,6955	3,8	5,2
1,696	6,8	7,3
1,6965	9,1	8,3
1,697	10,9	8,3
1,6975	12,2	7,5
1,698	13,2	6,4
1,6985	13,8	5,5
1,699	14,1	4,9
1,6995	13,9	4,2
1,7	13,3	3,5
1,7005	12,8	3,1
1,701	12,2	2,9
1,7015	11,4	2,3
1,702	10,0	0,9
1,7025	8,1	-1,1
1,703	6,3	-3,2
1,7035	4,9	-4,9
1,704	4,3	-6,0
1,7045	4,4	-6,2
1,705	5,5	-5,4
1,7055	7,4	-3,5
1,706	9,8	-0,7
1,7065	12,2	2,3
1,707	14,2	4,6
1,7075	15,3	5,7
1,708	15,8	5,5
1,7085	15,8	4,5
1,709	15,6	3,2
1,7095	15,7	2,6
1,71	16,6	3,7
1,7105	18,5	6,7
1,711	20,9	10,5
1,7115	23,4	14,3
1,712	25,9	17,5
1,7125	28,3	20,3
1,713	30,2	22,2
1,7135	31,1	22,8
1,714	30,6	21,7
1,7145	28,7	19,0
1,715	25,8	15,7
1,7155	23,0	12,4
1,716	20,8	9,3
1,7165	19,0	5,9
1,717	17,3	2,1
1,7175	15,3	-1,9
1,718	13,1	-5,7
1,7185	10,6	-8,6
1,719	8,1	-10,3
1,7195	6,1	-10,4
1,72	4,8	-9,6
1,7205	4,1	-8,3
1,721	3,6	-7,0
1,7215	3,8	-5,6
1,722	5,2	-3,3
1,7225	8,3	0,1
1,723	12,8	4,3
1,7235	17,5	8,3
1,724	20,9	10,8
1,7245	21,9	11,2
1,725	20,5	9,3
1,7255	17,2	6,0
1,726	13,2	2,3
1,7265	9,8	-0,7
1,727	7,8	-2,2
1,7275	7,8	-2,1
1,728	9,8	-0,5
1,7285	13,1	2,1
1,729	17,2	5,2
1,7295	21,0	8,2
1,73	23,7	10,2
1,7305	24,5	10,6
1,731	23,1	9,4
1,7315	20,3	7,3
1,732	17,1	5,1
1,7325	14,5	3,1
1,733	12,8	1,3
1,7335	12,1	0,1
1,734	12,5	-0,5
1,7345	13,9	-0,3
1,735	16,1	0,7
1,7355	18,7	2,0
1,736	20,7	3,1
1,7365	21,4	3,6
1,737	21,0	3,3
1,7375	20,0	2,5
1,738	19,3	2,2
1,7385	20,0	3,1
1,739	22,3	5,4
1,7395	25,8	8,5
1,74	29,6	11,7
1,7405	32,3	14,0
1,741	33,3	14,8
1,7415	32,4	13,8
1,742	29,7	11,6
1,7425	25,8	8,7
1,743	21,4	5,9
1,7435	17,5	3,9
1,744	14,6	3,0
1,7445	12,9	3,4
1,745	12,5	5,3
1,7455	13,0	8,2
1,746	13,9	11,3
1,7465	14,8	13,7
1,747	15,2	14,8
1,7475	14,5	14,4
1,748	12,6	12,9
1,7485	10,1	10,7
1,749	7,5	8,2
1,7495	5,3	5,7
1,75	4,2	3,3
1,7505	4,1	1,4
1,751	4,7	0,4
1,7515	5,2	-0,4
1,752	4,8	-1,5
1,7525	3,6	-3,5
1,753	2,2	-5,8
1,7535	1,2	-7,7
1,754	0,7	-8,1
1,7545	0,7	-7,0
1,755	1,1	-4,5
1,7555	2,1	-1,0
1,756	3,8	3,0
1,7565	5,4	6,4
1,757	6,2	8,3
1,7575	5,6	7,9
1,758	3,7	5,3
1,7585	0,8	0,7
1,759	-3,0	-5,3
1,7595	-7,3	-11,3
1,76	-10,8	-15,8
1,7605	-12,7	-17,8
1,761	-12,3	-17,2
1,7615	-10,1	-14,4
1,762	-6,8	-10,4
1,7625	-2,8	-6,2
1,763	1,4	-2,6
1,7635	5,2	-0,3
1,764	7,9	0,5
1,7645	9,4	0,2
1,765	9,7	-0,6
1,7655	9,2	-1,5
1,766	8,4	-2,1
1,7665	7,8	-2,5
1,767	7,8	-2,8
1,7675	8,3	-3,0
1,768	8,7	-3,3
1,7685	8,2	-4,3
1,769	6,3	-6,3
1,7695	3,4	-8,8
1,77	0,1	-11,0
1,7705	-2,3	-12,6
1,771	-3,3	-13,2
1,7715	-2,5	-12,7
1,772	-0,3	-10,7
1,7725	2,5	-7,6
1,773	5,5	-3,9
1,7735	8,3	-0,9
1,774	10,6	0,7
1,7745	12,3	1,1
1,775	13,3	0,7
1,7755	13,7	-0,2
1,776	13,3	-1,3
1,7765	12,6	-2,0
1,777	12,1	-1,8
1,7775	12,5	-0,6
1,778	14,0	1,6
1,7785	16,7	4,3
1,779	19,8	7,2
1,7795	22,5	9,3
1,78	24,1	10,1
1,7805	24,4	9,2
1,781	23,9	6,9
1,7815	23,0	4,5
1,782	22,4	2,9
1,7825	22,5	2,6
1,783	23,6	3,8
1,7835	25,6	6,1
1,784	28,3	8,9
1,7845	30,8	11,1
1,785	32,2	11,7
1,7855	32,0	10,3
1,786	30,3	7,6
1,7865	27,6	4,9
1,787	25,0	3,1
1,7875	23,2	2,6
1,788	22,4	3,2
1,7885	22,7	4,3
1,789	23,6	5,6
1,7895	24,4	6,1
1,79	24,5	5,5
1,7905	23,6	3,9
1,791	22,0	2,0
1,7915	19,9	0,5
1,792	17,7	-0,4
1,7925	15,5	-0,8
1,793	13,9	-0,5
1,7935	13,4	0,6
1,794	14,1	2,8
1,7945	15,6	5,6
1,795	17,6	8,5
1,7955	19,8	11,2
1,796	21,5	13,1
1,7965	22,3	13,8
1,797	22,0	13,0
1,7975	20,9	10,9
1,798	19,7	8,5
1,7985	19,3	6,6
1,799	20,0	5,7
1,7995	21,5	5,8
1,8	22,9	6,2
1,8005	24,0	6,6
1,801	24,4	6,6
1,8015	24,4	5,8
1,802	23,7	3,9
1,8025	22,4	1,4
1,803	20,8	-1,1
1,8035	18,9	-3,1
1,804	17,2	-4,5
1,8045	15,6	-5,0
1,805	14,3	-4,7
1,8055	13,7	-3,7
1,806	13,6	-2,3
1,8065	13,7	-1,3
1,807	13,9	-1,0
1,8075	14,1	-1,3
1,808	14,1	-1,8
1,8085	14,1	-2,2
1,809	13,9	-2,5
1,8095	13,9	-2,7
1,81	14,4	-2,2
1,8105	16,1	-0,5
1,811	18,9	2,3
1,8115	22,3	5,6
1,812	25,6	8,9
1,8125	28,6	12,0
1,813	31,0	14,3
1,8135	32,2	15,3
1,814	32,1	14,5
1,8145	30,8	12,5
1,815	29,1	10,1
1,8155	27,9	8,3
1,816	27,3	7,3
1,8165	27,3	7,0
1,817	27,4	7,1
1,8175	27,3	7,1
1,818	26,6	6,6
1,8185	25,0	5,1
1,819	22,4	2,6
1,8195	19,2	-0,4
1,82	15,8	-3,3
1,8205	12,4	-5,6
1,821	9,6	-7,3
1,8215	8,0	-8,2
1,822	8,2	-7,7
1,8225	10,4	-5,8
1,823	14,1	-2,6
1,8235	18,0	0,6
1,824	21,0	2,7
1,8245	22,3	3,4
1,825	21,8	2,8
1,8255	20,3	1,2
1,826	18,5	-0,7
1,8265	17,2	-2,1
1,827	16,8	-2,4
1,8275	17,7	-1,8
1,828	19,7	-0,3
1,8285	22,8	1,9
1,829	26,9	4,9
1,8295	31,4	8,2
1,83	35,6	11,0
1,8305	38,8	12,6
1,831	40,3	12,6
1,8315	40,1	11,2
1,832	38,4	9,1
1,8325	35,9	6,8
1,833	33,5	4,6
1,8335	31,6	3,0
1,834	30,6	2,2
1,8345	30,3	2,0
1,835	29,9	1,8
1,8355	28,8	0,9
1,836	26,4	-0,6
1,8365	23,3	-2,3
1,837	20,1	-3,3
1,8375	17,1	-3,9
1,838	14,4	-4,3
1,8385	12,2	-4,2
1,839	10,9	-3,5
1,8395	10,8	-2,1
1,84	11,7	-0,2
1,8405	13,7	2,1
1,841	16,5	4,8
1,8415	19,4	7,5
1,842	21,5	9,5
1,8425	22,0	9,8
1,843	21,3	8,9
1,8435	20,3	8,3
1,844	19,9	9,0
1,8445	20,3	10,8
1,845	21,6	13,4
1,8455	23,9	16,5
1,846	27,0	19,6
1,8465	30,1	21,7
1,847	32,3	22,0
1,8475	33,1	20,2
1,848	32,4	16,8
1,8485	30,9	13,0
1,849	29,6	9,7
1,8495	28,8	7,5
1,85	28,7	6,6
1,8505	28,7	6,4
1,851	28,5	6,5
1,8515	27,5	5,8
1,852	25,3	4,1
1,8525	22,6	1,6
1,853	19,7	-1,1
1,8535	17,2	-3,5
1,854	15,2	-5,4
1,8545	13,6	-6,8
1,855	12,4	-7,4
1,8555	11,6	-7,3
1,856	11,1	-6,8
1,8565	10,8	-6,7
1,857	10,4	-7,3
1,8575	10,3	-8,3
1,858	10,9	-8,9
1,8585	11,9	-8,8
1,859	12,8	-8,0
1,8595	13,5	-7,0
1,86	14,3	-5,4
1,8605	15,7	-3,1
1,861	17,8	-0,3
1,8615	20,1	2,9
1,862	22,3	6,1
1,8625	24,6	9,1
1,863	26,9	11,7
1,8635	29,3	13,4
1,864	32,0	14,0
1,8645	34,8	13,8
1,865	37,6	12,9
1,8655	39,7	11,5
1,866	40,3	9,5
1,8665	39,6	6,9
1,867	37,9	4,2
1,8675	36,1	1,9
1,868	34,1	-0,0
1,8685	31,8	-2,2
1,869	28,9	-4,9
1,8695	25,6	-7,7
1,87	22,3	-9,8
1,8705	19,4	-11,0
1,871	16,8	-11,1
1,8715	14,5	-10,2
1,872	12,5	-8,3
1,8725	10,9	-6,2
1,873	9,6	-4,4
1,8735	8,7	-3,5
1,874	7,9	-3,2
1,8745	7,3	-3,4
1,875	6,9	-3,7
1,8755	6,7	-4,0
1,876	6,6	-4,1
1,8765	6,8	-3,8
1,877	7,3	-2,8
1,8775	8,3	-1,1
1,878	9,9	1,3
1,8785	12,2	4,0
1,879	14,8	6,2
1,8795	17,2	7,1
1,88	18,7	6,1
1,8805	18,9	3,0
1,881	17,9	-1,3
1,8815	16,4	-5,6
1,882	15,4	-8,8
1,8825	15,2	-10,4
1,883	15,6	-10,8
1,8835	16,3	-10,7
1,884	16,9	-10,3
1,8845	17,3	-10,1
1,885	17,1	-10,6
1,8855	16,1	-12,0
1,886	14,7	-13,6
1,8865	13,3	-14,8
1,887	12,5	-15,1
1,8875	12,3	-15,2
1,888	12,4	-15,4
1,8885	12,6	-15,6
1,889	13,1	-15,2
1,8895	13,9	-14,0
1,89	14,9	-12,4
1,8905	15,8	-11,1
1,891	16,3	-10,3
1,8915	16,2	-10,1
1,892	15,6	-10,8
1,8925	14,8	-12,0
1,893	14,3	-13,1
1,8935	14,6	-13,1
1,894	15,6	-11,8
1,8945	17,1	-9,5
1,895	18,8	-6,7
1,8955	20,8	-3,8
1,896	22,8	-1,2
1,8965	24,8	0,7
1,897	26,3	1,8
1,8975	26,8	1,8
1,898	26,0	0,5
1,8985	24,0	-1,8
1,899	21,5	-4,0
1,8995	19,4	-5,6
1,9	18,2	-6,3
1,9005	18,2	-6,3
1,901	19,1	-5,9
1,9015	20,6	-6,1
1,902	21,8	-7,1
1,9025	22,4	-8,4
1,903	22,1	-9,4
1,9035	21,1	-9,7
1,904	19,4	-9,7
1,9045	17,9	-9,3
1,905	16,9	-8,4
1,9055	16,8	-6,9
1,906	17,2	-5,3
1,9065	17,5	-4,1
1,907	17,1	-4,0
1,9075	16,0	-5,0
1,908	14,4	-6,7
1,9085	12,8	-8,8
1,909	11,3	-10,8
1,9095	10,0	-12,5
1,91	9,3	-13,3
1,9105	9,6	-13,2
1,911	10,6	-12,4
1,9115	12,3	-11,4
1,912	14,2	-10,4
1,9125	16,2	-9,5
1,913	18,0	-8,8
1,9135	19,8	-8,6
1,914	21,4	-8,7
1,9145	22,9	-8,9
1,915	24,0	-9,1
1,9155	24,7	-9,3
1,916	25,2	-9,4
1,9165	25,9	-9,4
1,917	27,3	-8,7
1,9175	29,0	-7,7
1,918	30,3	-7,0
1,9185	30,2	-7,5
1,919	28,4	-9,2
1,9195	25,7	-11,3
1,92	23,0	-12,9
1,9205	21,1	-13,6
1,921	20,1	-13,2
1,9215	20,0	-11,4
1,922	20,6	-8,4
1,9225	21,5	-4,4
1,923	22,2	-0,2
1,9235	22,3	3,1
1,924	21,7	4,4
1,9245	20,3	3,6
1,925	18,6	1,3
1,9255	16,6	-1,7
1,926	14,8	-4,8
1,9265	13,7	-7,1
1,927	13,6	-8,4
1,9275	14,3	-8,5
1,928	15,8	-7,9
1,9285	17,7	-7,0
1,929	19,6	-6,3
1,9295	21,1	-6,3
1,93	21,7	-7,5
1,9305	21,5	-9,6
1,931	21,3	-11,9
1,9315	21,4	-13,2
1,932	21,8	-13,2
1,9325	22,4	-12,3
1,933	23,0	-11,3
1,9335	23,6	-10,7
1,934	24,1	-10,4
1,9345	24,7	-10,3
1,935	25,3	-10,0
1,9355	25,7	-9,6
1,936	25,7	-8,9
1,9365	25,1	-8,0
1,937	23,9	-7,2
1,9375	22,2	-6,8
1,938	20,2	-7,0
1,9385	18,7	-7,2
1,939	17,9	-7,1
1,9395	18,1	-6,7
1,94	18,8	-6,4
1,9405	19,3	-6,6
1,941	19,0	-7,8
1,9415	17,7	-9,9
1,942	15,5	-12,8
1,9425	12,9	-15,9
1,943	10,4	-18,4
1,9435	8,8	-19,4
1,944	8,5	-18,4
1,9445	9,8	-15,5
1,945	12,5	-11,4
1,9455	15,8	-7,0
1,946	19,1	-3,3
1,9465	21,8	-1,4
1,947	23,4	-1,3
1,9475	23,9	-2,6
1,948	24,0	-4,4
1,9485	24,5	-5,3
1,949	25,9	-5,1
1,9495	27,9	-3,8
1,95	30,0	-2,3
1,9505	31,6	-1,3
1,951	32,5	-1,3
1,9515	32,5	-2,6
1,952	31,5	-5,2
1,9525	29,9	-8,4
1,953	28,2	-11,1
1,9535	26,8	-13,0
1,954	25,8	-14,1
1,9545	25,1	-14,9
1,955	24,4	-15,4
1,9555	23,9	-15,4
1,956	23,7	-14,8
1,9565	23,8	-13,9
1,957	23,8	-13,3
1,9575	23,7	-13,0
1,958	23,7	-12,8
1,9585	23,9	-12,4
1,959	24,2	-11,7
1,9595	24,1	-10,9
1,96	23,9	-10,0
1,9605	24,1	-8,9
1,961	24,8	-7,5
1,9615	26,4	-5,5
1,962	28,7	-2,7
1,9625	31,5	0,7
1,963	34,2	3,8
1,9635	36,0	5,8
1,964	36,4	5,8
1,9645	34,8	3,8
1,965	32,0	0,8
1,9655	28,8	-1,9
1,966	26,5	-3,3
1,9665	25,4	-3,4
1,967	25,5	-3,0
1,9675	26,0	-2,7
1,968	26,2	-3,3
1,9685	25,5	-5,3
1,969	23,4	-8,6
1,9695	20,2	-12,2
1,97	16,3	-15,4
1,9705	12,8	-17,8
1,971	10,0	-19,7
1,9715	8,4	-21,4
1,972	8,1	-22,9
1,9725	8,5	-23,8
1,973	9,4	-23,9
1,9735	10,3	-23,4
1,974	11,0	-22,7
1,9745	11,7	-22,0
1,975	12,1	-21,3
1,9755	12,2	-20,8
1,976	11,7	-20,4
1,9765	11,2	-20,1
1,977	11,3	-19,6
1,9775	13,0	-18,1
1,978	16,6	-15,1
1,9785	22,4	-10,2
1,979	29,9	-3,6
1,9795	37,5	3,5
1,98	43,1	9,0
1,9805	45,0	11,6
1,981	43,3	10,6
1,9815	39,4	7,4
1,982	35,1	3,7
1,9825	31,4	0,4
1,983	28,6	-1,8
1,9835	26,8	-3,4
1,984	25,6	-4,3
1,9845	25,0	-4,8
1,985	24,2	-5,4
1,9855	22,8	-6,8
1,986	20,7	-8,8
1,9865	18,3	-10,8
1,987	16,0	-12,3
1,9875	14,3	-13,3
1,988	13,4	-13,6
1,9885	13,3	-13,2
1,989	14,0	-12,1
1,9895	15,2	-10,7
1,99	16,3	-9,4
1,9905	17,3	-8,7
1,991	17,9	-8,8
1,9915	18,3	-9,5
1,992	18,5	-10,6
1,9925	18,7	-11,8
1,993	18,7	-12,6
1,9935	19,1	-12,6
1,994	19,7	-11,9
1,9945	20,7	-10,8
1,995	21,7	-9,6
1,9955	22,6	-8,1
1,996	23,2	-6,3
1,9965	23,3	-4,6
1,997	22,5	-3,8
1,9975	20,7	-4,4
1,998	18,0	-6,2
1,9985	15,5	-8,4
1,999	13,6	-10,5
1,9995	12,3	-12,3
2	11,8	-13,6
2,0005	11,8	-14,4
2,001	12,3	-14,9
2,0015	12,3	-15,8
2,002	11,0	-17,8
2,0025	8,1	-20,8
2,003	4,5	-23,7
2,0035	1,3	-25,2
2,004	-0,4	-25,0
2,0045	-0,1	-23,1
2,005	2,1	-19,8
2,0055	5,5	-15,8
2,006	9,4	-11,6
2,0065	13,0	-7,9
2,007	16,0	-5,2
2,0075	18,3	-3,5
2,008	20,1	-2,9
2,0085	21,1	-3,2
2,009	21,1	-4,0
2,0095	20,3	-5,2
2,01	19,5	-6,1
2,0105	19,7	-5,9
2,011	21,0	-4,3
2,0115	23,0	-1,5
2,012	25,4	1,7
2,0125	28,0	4,3
2,013	30,5	5,8
2,0135	32,4	6,3
2,014	33,3	5,6
2,0145	32,8	4,1
2,015	31,5	2,2
2,0155	29,9	0,3
2,016	28,4	-1,5
2,0165	27,1	-3,3
2,017	26,0	-5,1
2,0175	24,8	-7,2
2,018	22,8	-10,0
2,0185	19,7	-13,9
2,019	15,8	-18,1
2,0195	12,1	-21,3
2,02	9,3	-22,7
2,0205	7,4	-22,5
2,021	5,9	-21,6
2,0215	4,7	-20,8
2,022	3,6	-20,0
2,0225	2,9	-19,5
2,023	2,3	-19,6
2,0235	1,4	-20,8
2,024	0,2	-22,7
2,0245	-1,1	-24,9
2,025	-2,3	-26,9
2,0255	-3,2	-28,4
2,026	-3,2	-29,1
2,0265	-1,9	-28,5
2,027	0,6	-26,1
2,0275	4,0	-22,3
2,028	7,6	-18,1
2,0285	10,7	-14,3
2,029	12,8	-11,6
2,0295	14,3	-10,0
2,03	15,3	-9,3
2,0305	16,0	-9,1
2,031	16,5	-9,2
2,0315	17,0	-9,3
2,032	17,7	-9,3
2,0325	18,5	-9,5
2,033	19,0	-10,1
2,0335	18,9	-11,2
2,034	18,1	-12,8
2,0345	16,7	-14,7
2,035	14,9	-16,9
2,0355	12,6	-19,4
2,036	9,6	-21,8
2,0365	6,5	-23,6
2,037	3,9	-24,6
2,0375	2,1	-24,9
2,038	1,4	-24,2
2,0385	2,1	-22,5
2,039	4,0	-19,4
2,0395	7,1	-15,1
2,04	10,5	-10,4
2,0405	13,5	-6,5
2,041	15,3	-4,1
2,0415	15,6	-3,6
2,042	14,7	-4,6
2,0425	13,3	-6,1
2,043	12,2	-7,2
2,0435	12,0	-6,9
2,044	12,8	-5,3
2,0445	14,3	-2,8
2,045	16,3	-0,1
2,0455	18,5	2,6
2,046	20,7	4,7
2,0465	22,6	5,3
2,047	23,5	4,2
2,0475	23,3	1,4
2,048	22,2	-2,3
2,0485	20,9	-5,6
2,049	19,7	-8,0
2,0495	18,4	-9,9
2,05	16,9	-11,6
2,0505	14,9	-13,5
2,051	12,6	-15,5
2,0515	10,0	-18,0
2,052	7,0	-21,2
2,0525	3,8	-24,8
2,053	0,7	-28,1
2,0535	-1,6	-30,4
2,054	-2,6	-31,3
2,0545	-2,0	-30,7
2,055	-0,4	-28,9
2,0555	2,0	-26,3
2,056	4,7	-23,3
2,0565	7,5	-20,3
2,057	10,1	-17,5
2,0575	11,8	-15,1
2,058	12,6	-13,5
2,0585	12,3	-12,7
2,059	10,8	-13,1
2,0595	8,7	-14,4
2,06	6,7	-15,9
2,0605	5,5	-16,8
2,061	5,8	-16,4
2,0615	7,3	-14,8
2,062	9,9	-12,5
2,0625	13,0	-9,9
2,063	15,9	-7,9
2,0635	18,3	-6,9
2,064	19,6	-6,9
2,0645	19,5	-8,0
2,065	18,2	-9,4
2,0655	16,3	-10,6
2,066	14,3	-11,1
2,0665	12,7	-11,2
2,067	11,5	-11,3
2,0675	10,8	-11,6
2,068	10,4	-12,3
2,0685	9,8	-13,7
2,069	8,5	-16,1
2,0695	6,5	-19,1
2,07	4,3	-21,9
2,0705	2,5	-23,6
2,071	1,6	-23,6
2,0715	1,4	-22,0
2,072	2,0	-19,1
2,0725	3,2	-15,5
2,073	4,6	-12,0
2,0735	6,1	-9,4
2,074	7,4	-8,1
2,0745	8,7	-8,0
2,075	10,0	-8,7
2,0755	11,4	-9,4
2,076	13,0	-9,6
2,0765	14,8	-8,8
2,077	16,9	-7,1
2,0775	19,2	-4,8
2,078	21,4	-2,8
2,0785	23,5	-1,3
2,079	25,2	-0,3
2,0795	26,4	-0,1
2,08	26,5	-0,7
2,0805	25,7	-2,5
2,081	24,1	-5,4
2,0815	21,9	-8,7
2,082	19,7	-11,5
2,0825	17,7	-13,5
2,083	16,4	-14,7
2,0835	15,7	-15,5
2,084	15,1	-16,2
2,0845	13,8	-17,5
2,085	11,1	-19,9
2,0855	7,0	-23,6
2,086	2,5	-27,6
2,0865	-1,0	-30,6
2,087	-2,7	-31,5
2,0875	-2,6	-30,3
2,088	-1,2	-27,6
2,0885	0,9	-24,1
2,089	3,1	-20,6
2,0895	4,8	-17,7
2,09	5,7	-16,2
2,0905	5,7	-16,2
2,091	5,0	-17,1
2,0915	4,1	-18,3
2,092	2,9	-19,5
2,0925	1,6	-20,4
2,093	0,8	-20,9
2,0935	1,3	-20,2
2,094	3,5	-17,9
2,0945	6,9	-14,2
2,095	10,9	-9,7
2,0955	14,8	-5,3
2,096	18,3	-1,5
2,0965	21,0	1,2
2,097	22,4	1,8
2,0975	21,9	0,3
2,098	19,5	-3,2
2,0985	15,7	-7,4
2,099	11,5	-11,2
2,0995	7,9	-14,3
2,1	5,4	-16,8
2,1005	4,0	-18,5
2,101	3,3	-19,7
2,1015	2,8	-20,6
2,102	1,5	-21,8
2,1025	-0,5	-23,5
2,103	-2,7	-25,0
2,1035	-4,4	-25,8
2,104	-5,4	-25,9
2,1045	-5,6	-25,3
2,105	-4,6	-23,8
2,1055	-2,1	-20,6
2,106	1,7	-15,8
2,1065	5,7	-10,3
2,107	8,8	-5,8
2,1075	10,6	-3,1
2,108	11,2	-2,7
2,1085	11,0	-4,0
2,109	10,0	-6,5
2,1095	8,8	-9,5
2,11	7,5	-12,1
2,1105	6,9	-13,6
2,111	6,8	-14,0
2,1115	7,2	-13,8
2,112	7,9	-13,3
2,1125	8,8	-12,8
2,113	9,6	-13,0
2,1135	9,8	-14,1
2,114	9,2	-16,2
2,1145	7,9	-18,5
2,115	6,5	-19,9
2,1155	5,9	-19,5
2,116	5,9	-17,9
2,1165	5,7	-16,5
2,117	4,7	-16,3
2,1175	2,5	-17,3
2,118	-0,5	-19,4
2,1185	-3,9	-22,3
2,119	-7,2	-25,3
2,1195	-9,6	-27,7
2,12	-10,5	-28,7
2,1205	-10,3	-28,4
2,121	-9,5	-27,3
2,1215	-8,6	-25,8
2,122	-7,7	-23,9
2,1225	-6,4	-21,6
2,123	-4,8	-19,0
2,1235	-3,2	-16,7
2,124	-1,8	-15,0
2,1245	-1,1	-13,9
2,125	-0,8	-13,6
2,1255	-0,5	-13,9
2,126	0,1	-14,5
2,1265	1,1	-14,7
2,127	2,4	-14,2
2,1275	3,3	-13,4
2,128	3,8	-12,4
2,1285	3,8	-11,4
2,129	3,6	-10,5
2,1295	3,2	-9,7
2,13	2,3	-9,8
2,1305	0,8	-10,9
2,131	-0,9	-13,1
2,1315	-2,2	-15,3
2,132	-2,6	-16,7
2,1325	-1,8	-16,8
2,133	0,0	-15,8
2,1335	2,7	-13,8
2,134	6,1	-10,7
2,1345	9,8	-6,8
2,135	13,0	-3,0
2,1355	15,0	-0,3
2,136	15,0	0,9
2,1365	13,5	0,3
2,137	11,4	-1,5
2,1375	9,7	-3,5
2,138	9,1	-5,0
2,1385	9,8	-5,3
2,139	11,9	-4,5
2,1395	15,0	-3,3
2,14	18,1	-2,6
2,1405	20,0	-3,3
2,141	20,4	-5,4
2,1415	19,9	-8,0
2,142	19,1	-10,1
2,1425	18,1	-11,5
2,143	16,9	-12,1
2,1435	15,8	-11,6
2,144	15,0	-10,0
2,1445	14,3	-8,1
2,145	13,4	-6,3
2,1455	12,5	-5,0
2,146	11,7	-3,9
2,1465	11,0	-3,0
2,147	10,0	-2,6
2,1475	8,2	-3,0
2,148	5,5	-4,6
2,1485	2,3	-7,0
2,149	-0,8	-9,8
2,1495	-3,4	-12,6
2,15	-5,7	-14,9
2,1505	-7,5	-16,8
2,151	-9,0	-18,4
2,1515	-10,5	-20,3
2,152	-12,5	-23,0
2,1525	-15,1	-26,1
2,153	-17,6	-28,7
2,1535	-19,1	-29,9
2,154	-18,9	-29,6
2,1545	-17,3	-28,0
2,155	-14,9	-25,6
2,1555	-12,4	-22,9
2,156	-10,4	-20,4
2,1565	-9,1	-18,7
2,157	-8,5	-17,9
2,1575	-8,3	-17,6
2,158	-7,8	-17,1
2,1585	-6,9	-16,0
2,159	-5,6	-14,5
2,1595	-4,0	-12,6
2,16	-2,2	-10,4
2,1605	-0,1	-7,8
2,161	2,1	-5,4
2,1615	3,9	-3,3
2,162	5,3	-1,6
2,1625	6,3	0,1
2,163	6,8	1,5
2,1635	6,7	2,3
2,164	6,0	2,3
2,1645	4,9	1,5
2,165	3,8	0,2
2,1655	3,1	-0,7
2,166	3,3	-0,8
2,1665	4,2	-0,2
2,167	5,6	1,1
2,1675	7,2	2,3
2,168	8,3	2,9
2,1685	8,4	1,8
2,169	6,9	-1,1
2,1695	4,4	-4,8
2,17	1,8	-8,3
2,1705	0,0	-11,0
2,171	-0,7	-13,1
2,1715	-0,4	-14,3
2,172	0,6	-14,6
2,1725	1,8	-13,8
2,173	2,6	-12,6
2,1735	2,8	-11,4
2,174	2,6	-10,4
2,1745	2,2	-9,6
2,175	1,7	-8,9
2,1755	0,7	-8,7
2,176	-0,8	-8,7
2,1765	-2,6	-8,7
2,177	-4,1	-8,5
2,1775	-5,2	-7,9
2,178	-5,9	-7,0
2,1785	-6,3	-6,1
2,179	-6,0	-5,0
2,1795	-5,0	-4,0
2,18	-3,4	-3,4
2,1805	-1,9	-3,6
2,181	-0,8	-4,5
2,1815	-0,2	-5,8
2,182	0,0	-7,0
2,1825	-0,1	-8,1
2,183	-0,2	-9,0
2,1835	-0,3	-10,0
2,184	-0,2	-11,1
2,1845	-0,1	-12,6
2,185	-0,5	-14,7
2,1855	-1,6	-17,3
2,186	-3,5	-20,2
2,1865	-5,5	-22,4
2,187	-7,2	-23,5
2,1875	-8,3	-23,5
2,188	-9,1	-22,6
2,1885	-9,3	-20,8
2,189	-8,7	-18,5
2,1895	-7,3	-15,8
2,19	-5,5	-13,5
2,1905	-4,2	-11,9
2,191	-3,5	-11,1
2,1915	-3,5	-10,9
2,192	-4,0	-11,3
2,1925	-4,8	-11,8
2,193	-5,2	-11,8
2,1935	-4,3	-10,4
2,194	-2,3	-7,9
2,1945	0,4	-4,7
2,195	3,2	-1,3
2,1955	6,0	2,1
2,196	8,8	5,7
2,1965	11,4	8,8
2,197	13,3	10,7
2,1975	14,2	10,8
2,198	13,8	9,2
2,1985	12,8	6,9
2,199	11,7	4,8
2,1995	11,2	3,3
2,2	11,1	2,1
2,2005	11,0	1,2
2,201	10,5	0,1
2,2015	9,2	-1,7
2,202	7,1	-4,2
2,2025	4,7	-7,1
2,203	2,1	-9,7
2,2035	-0,2	-11,4
2,204	-2,1	-12,8
2,2045	-3,9	-13,8
2,205	-5,4	-14,5
2,2055	-6,7	-14,6
2,206	-7,6	-14,0
2,2065	-8,0	-12,9
2,207	-8,1	-11,7
2,2075	-7,8	-10,7
2,208	-7,4	-10,1
2,2085	-7,0	-9,8
2,209	-7,1	-9,6
2,2095	-8,0	-9,6
2,21	-9,3	-9,6
2,2105	-10,6	-9,5
2,211	-11,7	-9,4
2,2115	-12,4	-8,9
2,212	-12,4	-7,8
2,2125	-10,6	-5,3
2,213	-6,7	-1,1
2,2135	-1,0	4,2
2,214	5,4	9,8
2,2145	11,0	14,2
2,215	15,0	16,9
2,2155	17,4	17,9
2,216	18,7	17,5
2,2165	19,6	16,0
2,217	20,5	13,8
2,2175	21,2	11,2
2,218	21,3	8,1
2,2185	20,3	4,2
2,219	17,7	-0,5
2,2195	14,1	-5,4
2,22	10,4	-9,7
2,2205	7,2	-13,3
2,221	4,4	-15,8
2,2215	2,2	-16,6
2,222	0,8	-15,3
2,2225	0,2	-12,1
2,223	0,3	-8,2
2,2235	0,3	-4,8
2,224	0,1	-2,8
2,2245	-0,5	-2,3
2,225	-1,6	-2,6
2,2255	-3,4	-3,6
2,226	-6,2	-4,9
2,2265	-9,3	-6,3
2,227	-11,8	-7,0
2,2275	-12,9	-6,8
2,228	-13,0	-5,8
2,2285	-12,4	-4,5
2,229	-11,2	-2,9
2,2295	-9,5	-1,3
2,23	-7,8	-0,2
2,2305	-6,6	-0,3
2,231	-6,2	-1,8
2,2315	-6,4	-4,0
2,232	-7,1	-6,1
2,2325	-8,1	-7,7
2,233	-9,3	-8,8
2,2335	-10,5	-9,5
2,234	-11,4	-10,3
2,2345	-12,1	-11,4
2,235	-13,1	-13,3
2,2355	-14,8	-15,9
2,236	-17,2	-18,8
2,2365	-19,6	-21,0
2,237	-21,3	-22,3
2,2375	-22,0	-22,4
2,238	-21,5	-21,1
2,2385	-19,6	-18,2
2,239	-16,3	-13,7
2,2395	-11,4	-7,9
2,24	-5,9	-1,7
2,2405	-0,9	3,8
2,241	2,5	7,5
2,2415	4,1	9,2
2,242	4,4	9,0
2,2425	3,9	7,7
2,243	3,4	6,4
2,2435	3,6	5,8
2,244	4,6	6,2
2,2445	6,2	7,1
2,245	8,0	8,0
2,2455	9,8	8,3
2,246	10,9	7,8
2,2465	11,1	5,9
2,247	10,2	2,8
2,2475	8,6	-1,2
2,248	6,7	-5,1
2,2485	4,8	-8,3
2,249	2,8	-10,5
2,2495	0,7	-11,7
2,25	-1,3	-12,0
2,2505	-3,0	-11,6
2,251	-4,5	-11,1
2,2515	-5,6	-11,3
2,252	-6,7	-12,6
2,2525	-7,8	-14,9
2,253	-9,4	-17,4
2,2535	-11,3	-19,7
2,254	-13,7	-21,4
2,2545	-16,0	-22,5
2,255	-17,9	-22,6
2,2555	-18,8	-21,5
2,256	-18,7	-19,2
2,2565	-17,7	-16,4
2,257	-16,3	-13,7
2,2575	-15,0	-11,7
2,258	-14,2	-10,6
2,2585	-14,1	-10,2
2,259	-14,9	-10,4
2,2595	-16,0	-10,8
2,26	-16,6	-10,8
2,2605	-16,2	-10,1
2,261	-14,8	-8,7
2,2615	-12,7	-6,9
2,262	-10,2	-5,0
2,2625	-7,2	-3,1
2,263	-3,9	-1,2
2,2635	-0,9	0,3
2,264	1,1	0,8
2,2645	1,5	0,2
2,265	0,6	-1,0
2,2655	-0,9	-1,8
2,266	-2,5	-2,2
2,2665	-4,0	-2,2
2,267	-5,7	-2,3
2,2675	-7,5	-2,8
2,268	-9,3	-4,4
2,2685	-11,0	-7,1
2,269	-12,6	-10,8
2,2695	-13,9	-14,8
2,27	-14,9	-18,5
2,2705	-15,7	-21,4
2,271	-16,4	-23,2
2,2715	-17,1	-23,3
2,272	-17,3	-21,7
2,2725	-16,6	-18,7
2,273	-15,3	-15,2
2,2735	-13,6	-12,2
2,274	-12,0	-10,3
2,2745	-10,8	-9,7
2,275	-10,0	-10,0
2,2755	-9,3	-10,5
2,276	-8,4	-10,3
2,2765	-6,4	-8,1
2,277	-3,4	-3,8
2,2775	0,0	1,5
2,278	2,9	6,4
2,2785	4,6	9,8
2,279	5,2	11,5
2,2795	5,0	11,4
2,28	4,2	9,7
2,2805	2,7	6,8
2,281	0,4	3,1
2,2815	-2,4	-0,7
2,282	-5,2	-3,7
2,2825	-7,3	-5,7
2,283	-8,8	-6,9
2,2835	-10,2	-7,9
2,284	-11,9	-8,9
2,2845	-14,2	-10,3
2,285	-16,8	-12,3
2,2855	-19,4	-14,9
2,286	-21,4	-17,8
2,2865	-22,6	-20,2
2,287	-23,2	-21,6
2,2875	-23,6	-22,1
2,288	-24,0	-21,7
2,2885	-23,7	-20,1
2,289	-22,2	-16,8
2,2895	-19,5	-12,5
2,29	-16,3	-8,5
2,2905	-13,5	-6,1
2,291	-11,5	-5,7
2,2915	-10,1	-6,6
2,292	-9,2	-8,2
2,2925	-8,6	-9,8
2,293	-7,8	-10,8
2,2935	-6,1	-10,4
2,294	-3,1	-8,5
2,2945	1,2	-5,3
2,295	6,3	-1,0
2,2955	11,7	3,9
2,296	16,3	8,9
2,2965	19,5	12,7
2,297	20,7	14,5
2,2975	20,0	14,2
2,298	18,1	12,4
2,2985	16,0	10,5
2,299	14,3	9,0
2,2995	12,8	8,0
2,3	10,9	6,9
2,3005	8,2	5,7
2,301	4,7	3,7
2,3015	0,6	0,5
2,302	-4,3	-4,2
2,3025	-9,9	-10,0
2,303	-15,7	-15,6
2,3035	-20,7	-19,7
2,304	-24,1	-21,4
2,3045	-25,8	-21,3
2,305	-26,3	-19,8
2,3055	-26,0	-17,8
2,306	-25,3	-15,8
2,3065	-24,4	-14,6
2,307	-23,4	-14,2
2,3075	-22,4	-14,6
2,308	-21,4	-15,4
2,3085	-20,6	-16,3
2,309	-19,9	-16,9
2,3095	-19,2	-16,8
2,31	-17,8	-15,6
2,3105	-15,5	-13,1
2,311	-12,9	-9,8
2,3115	-10,7	-6,5
2,312	-9,1	-3,8
2,3125	-8,3	-2,0
2,313	-7,8	-1,3
2,3135	-7,4	-1,4
2,314	-7,4	-2,2
2,3145	-7,9	-3,4
2,315	-8,6	-4,3
2,3155	-9,4	-4,8
2,316	-10,1	-4,9
2,3165	-10,8	-5,0
2,317	-11,6	-5,3
2,3175	-12,5	-5,9
2,318	-13,7	-7,2
2,3185	-15,2	-9,2
2,319	-16,9	-11,6
2,3195	-18,1	-13,6
2,32	-18,4	-14,4
2,3205	-17,5	-13,6
2,321	-15,9	-11,5
2,3215	-13,9	-8,7
2,322	-11,9	-5,5
2,3225	-9,8	-2,4
2,323	-7,6	0,2
2,3235	-5,8	1,6
2,324	-5,1	1,9
2,3245	-5,3	1,5
2,325	-6,1	0,8
2,3255	-7,4	-0,3
2,326	-8,8	-1,8
2,3265	-10,1	-3,1
2,327	-10,8	-3,6
2,3275	-10,9	-3,2
2,328	-10,4	-1,9
2,3285	-9,5	-0,2
2,329	-8,3	1,6
2,3295	-7,5	2,7
2,33	-7,6	2,8
2,3305	-8,8	1,5
2,331	-10,9	-1,0
2,3315	-13,4	-3,9
2,332	-15,6	-6,5
2,3325	-17,3	-8,2
2,333	-18,4	-9,1
2,3335	-19,2	-9,4
2,334	-19,5	-9,7
2,3345	-19,6	-10,4
2,335	-19,6	-11,9
2,3355	-20,0	-14,2
2,336	-20,9	-16,4
2,3365	-21,9	-17,5
2,337	-22,3	-17,3
2,3375	-22,2	-16,0
2,338	-21,8	-14,3
2,3385	-21,1	-12,1
2,339	-19,9	-9,2
2,3395	-18,1	-5,9
2,34	-15,8	-3,0
2,3405	-13,9	-1,2
2,341	-12,5	-0,4
2,3415	-11,7	-0,4
2,342	-11,3	-1,0
2,3425	-11,4	-1,9
2,343	-11,7	-2,8
2,3435	-11,8	-3,2
2,344	-11,4	-3,0
2,3445	-10,5	-2,1
2,345	-9,0	-0,4
2,3455	-7,0	2,5
2,346	-4,8	6,1
2,3465	-2,7	9,6
2,347	-1,3	11,8
2,3475	-1,0	12,3
2,348	-1,7	11,3
2,3485	-2,9	9,4
2,349	-3,8	7,7
2,3495	-4,2	6,3
2,35	-4,5	5,3
2,3505	-4,9	4,3
2,351	-5,8	2,6
2,3515	-7,9	-0,4
2,352	-11,1	-5,1
2,3525	-15,2	-10,7
2,353	-19,3	-16,0
2,3535	-23,0	-20,1
2,354	-26,0	-23,1
2,3545	-28,0	-24,9
2,355	-28,5	-24,9
2,3555	-27,3	-23,1
2,356	-24,5	-19,7
2,3565	-20,8	-15,6
2,357	-17,3	-11,7
2,3575	-14,6	-8,6
2,358	-13,1	-6,6
2,3585	-12,8	-5,9
2,359	-13,4	-6,6
2,3595	-14,3	-8,0
2,36	-14,7	-9,1
2,3605	-13,9	-8,9
2,361	-11,6	-7,0
2,3615	-7,9	-3,7
2,362	-3,5	0,3
2,3625	0,6	4,0
2,363	3,7	6,3
2,3635	5,2	6,4
2,364	4,8	4,3
2,3645	2,6	0,8
2,365	-0,3	-2,8
2,3655	-2,7	-5,1
2,366	-3,8	-5,5
2,3665	-3,8	-4,4
2,367	-2,8	-2,7
2,3675	-1,3	-1,0
2,368	0,0	-0,1
2,3685	0,2	-0,5
2,369	-1,3	-2,3
2,3695	-3,8	-4,7
2,37	-6,7	-7,0
2,3705	-8,9	-8,8
2,371	-9,7	-9,7
2,3715	-8,6	-9,4
2,372	-5,5	-7,6
2,3725	-1,1	-4,1
2,373	3,8	-0,0
2,3735	7,9	3,3
2,374	10,4	4,9
2,3745	10,8	4,9
2,375	9,9	3,8
2,3755	8,6	2,3
2,376	7,5	0,9
2,3765	7,0	0,6
2,377	7,1	1,7
2,3775	7,4	4,0
2,378	7,7	7,0
2,3785	7,4	9,7
2,379	6,5	11,6
2,3795	4,9	12,1
2,38	2,4	10,6
2,3805	-1,3	7,1
2,381	-6,1	2,1
2,3815	-11,5	-3,1
2,382	-16,6	-7,3
2,3825	-20,4	-9,8
2,383	-22,7	-10,9
2,3835	-23,8	-11,7
2,384	-24,5	-12,6
2,3845	-25,2	-13,9
2,385	-26,1	-15,7
2,3855	-27,3	-17,6
2,386	-28,5	-19,5
2,3865	-29,3	-20,5
2,387	-29,0	-20,4
2,3875	-27,3	-19,0
2,388	-24,3	-16,3
2,3885	-20,6	-12,5
2,389	-16,7	-8,2
2,3895	-13,0	-4,2
2,39	-10,5	-1,4
2,3905	-9,3	0,0
2,391	-9,3	0,3
2,3915	-9,8	-0,1
2,392	-10,4	-1,0
2,3925	-10,7	-2,3
2,393	-10,7	-3,6
2,3935	-10,4	-4,4
2,394	-9,6	-4,1
2,3945	-8,1	-2,7
2,395	-6,0	-0,4
2,3955	-3,4	2,2
2,396	-0,8	4,5
2,3965	1,5	6,2
2,397	3,1	6,6
2,3975	3,5	5,9
2,398	2,7	4,5
2,3985	1,2	3,1
2,399	-0,2	2,3
2,3995	-1,1	1,9
2,4	-1,7	1,7
2,4005	-2,5	1,3
2,401	-3,4	0,5
2,4015	-4,4	-0,9
2,402	-5,3	-2,6
2,4025	-5,8	-3,8
2,403	-5,8	-3,8
2,4035	-5,5	-2,6
2,404	-5,4	-1,0
2,4045	-5,5	0,6
2,405	-5,5	2,0
2,4055	-5,1	3,6
2,406	-4,1	5,4
2,4065	-3,0	6,9
2,407	-2,0	7,4
2,4075	-1,4	6,7
2,408	-1,1	4,8
2,4085	-1,0	2,1
2,409	-1,1	-1,1
2,4095	-1,4	-4,6
2,41	-1,7	-7,4
2,4105	-1,7	-8,6
2,411	-0,6	-7,9
2,4115	1,5	-5,3
2,412	4,3	-1,4
2,4125	7,4	3,0
2,413	10,0	7,0
2,4135	11,4	9,7
2,414	11,3	10,6
2,4145	9,7	10,1
2,415	7,2	8,8
2,4155	4,4	7,5
2,416	1,9	6,5
2,4165	-0,1	5,5
2,417	-1,8	4,5
2,4175	-3,6	3,4
2,418	-5,6	1,6
2,4185	-8,5	-1,5
2,419	-12,4	-5,9
2,4195	-17,3	-11,1
2,42	-22,6	-16,1
2,4205	-27,1	-20,5
2,421	-30,0	-24,0
2,4215	-31,0	-26,0
2,422	-30,1	-26,2
2,4225	-27,5	-24,4
2,423	-23,6	-21,1
2,4235	-19,2	-17,6
2,424	-15,3	-14,6
2,4245	-12,3	-12,8
2,425	-10,5	-12,1
2,4255	-9,9	-11,8
2,426	-10,0	-11,7
2,4265	-10,0	-11,0
2,427	-9,2	-9,5
2,4275	-7,1	-7,1
2,428	-4,1	-4,0
2,4285	-0,8	-0,5
2,429	2,0	3,2
2,4295	4,4	6,5
2,43	6,3	8,8
2,4305	7,5	9,7
2,431	7,5	9,0
2,4315	6,4	7,0
2,432	4,6	4,5
2,4325	2,3	1,8
2,433	0,1	-0,9
2,4335	-1,7	-3,1
2,434	-2,6	-4,4
2,4345	-2,6	-5,1
2,435	-2,7	-6,3
2,4355	-4,0	-8,7
2,436	-6,8	-12,2
2,4365	-10,2	-15,9
2,437	-13,0	-18,9
2,4375	-14,4	-20,3
2,438	-14,1	-19,6
2,4385	-12,3	-16,8
2,439	-9,8	-13,0
2,4395	-7,3	-9,4
2,44	-5,7	-7,1
2,4405	-5,4	-6,3
2,441	-6,2	-6,7
2,4415	-7,8	-8,0
2,442	-9,8	-9,9
2,4425	-11,5	-11,8
2,443	-12,2	-12,8
2,4435	-11,1	-12,3
2,444	-8,2	-10,0
2,4445	-4,1	-6,3
2,445	-0,0	-2,3
2,4455	3,3	1,5
2,446	5,7	4,3
2,4465	7,2	6,0
2,447	7,8	6,2
2,4475	7,3	5,0
2,448	6,1	2,8
2,4485	4,7	0,3
2,449	3,5	-1,7
2,4495	2,8	-2,9
2,45	2,3	-3,3
2,4505	1,8	-3,3
2,451	0,6	-3,3
2,4515	-1,7	-4,0
2,452	-5,3	-5,8
2,4525	-9,3	-8,1
2,453	-12,9	-9,9
2,4535	-15,1	-10,3
2,454	-15,4	-9,1
2,4545	-14,2	-6,8
2,455	-12,3	-3,8
2,4555	-10,8	-0,9
2,456	-10,2	1,2
2,4565	-10,7	2,0
2,457	-12,1	1,3
2,4575	-13,7	-0,7
2,458	-14,8	-3,1
2,4585	-15,1	-5,0
2,459	-14,5	-5,9
2,4595	-13,4	-5,9
2,46	-11,8	-5,3
2,4605	-9,7	-4,3
2,461	-7,3	-3,2
2,4615	-4,9	-2,0
2,462	-2,8	-0,8
2,4625	-0,9	0,6
2,463	0,5	1,8
2,4635	1,3	2,5
2,464	1,0	1,9
2,4645	-0,3	0,0
2,465	-2,1	-2,3
2,4655	-3,7	-4,1
2,466	-4,6	-4,7
2,4665	-4,8	-4,5
2,467	-4,5	-4,1
2,4675	-4,2	-4,0
2,468	-4,1	-4,3
2,4685	-4,6	-4,8
2,469	-5,7	-5,2
2,4695	-6,9	-4,8
2,47	-8,2	-3,4
2,4705	-9,5	-1,6
2,471	-10,9	-0,2
2,4715	-12,1	0,7
2,472	-12,6	1,3
2,4725	-12,3	1,8
2,473	-11,3	2,2
2,4735	-10,0	1,8
2,474	-8,5	0,7
2,4745	-6,9	-1,4
2,475	-5,6	-4,3
2,4755	-5,1	-7,9
2,476	-5,7	-11,9
2,4765	-6,8	-15,0
2,477	-8,0	-16,2
2,4775	-8,5	-14,9
2,478	-8,3	-11,7
2,4785	-7,2	-7,1
2,479	-5,3	-1,9
2,4795	-3,3	2,8
2,48	-1,9	6,1
2,4805	-2,0	7,3
2,481	-3,3	6,5
2,4815	-5,4	4,7
2,482	-7,3	3,1
2,4825	-8,7	2,2
2,483	-9,7	2,1
2,4835	-10,3	2,3
2,484	-10,6	2,3
2,4845	-11,2	1,4
2,485	-12,5	-0,7
2,4855	-14,8	-3,9
2,486	-17,7	-7,6
2,4865	-20,3	-10,7
2,487	-22,0	-12,8
2,4875	-23,2	-14,2
2,488	-23,9	-14,8
2,4885	-24,0	-14,2
2,489	-23,1	-12,2
2,4895	-21,4	-9,1
2,49	-19,8	-6,1
2,4905	-18,8	-4,2
2,491	-18,6	-3,4
2,4915	-18,9	-3,7
2,492	-19,2	-4,7
2,4925	-19,7	-6,3
2,493	-20,2	-8,2
2,4935	-20,5	-9,4
2,494	-20,4	-9,7
2,4945	-19,6	-8,9
2,495	-18,0	-7,4
2,4955	-15,6	-5,2
2,496	-12,6	-2,4
2,4965	-9,5	0,4
2,497	-6,8	2,3
2,4975	-5,3	2,7
2,498	-5,1	1,8
2,4985	-5,9	0,5
2,499	-7,5	-0,5
2,4995	-9,3	-1,0
2,5	-10,8	-1,0
2,5005	-11,4	-0,6
2,501	-11,5	-0,1
2,5015	-11,5	-0,1
2,502	-12,3	-1,2
2,5025	-13,8	-3,3
2,503	-15,9	-5,5
2,5035	-17,9	-7,2
2,504	-19,6	-8,3
2,5045	-20,6	-8,4
2,505	-20,5	-7,5
2,5055	-19,4	-5,9
2,506	-17,6	-4,1
2,5065	-15,8	-2,9
2,507	-14,6	-2,6
2,5075	-13,8	-3,0
2,508	-13,1	-3,8
2,5085	-12,4	-4,8
2,509	-12,1	-5,8
2,5095	-12,1	-6,5
2,51	-12,2	-6,5
2,5105	-11,5	-5,3
2,511	-9,8	-3,0
2,5115	-7,6	0,3
2,512	-5,1	4,1
2,5125	-2,4	8,0
2,513	0,5	11,3
2,5135	3,3	13,7
2,514	5,1	14,6
2,5145	5,2	13,5
2,515	3,7	10,8
2,5155	1,1	7,2
2,516	-1,5	3,6
2,5165	-3,9	0,2
2,517	-6,3	-3,1
2,5175	-8,9	-6,8
2,518	-11,8	-11,3
2,5185	-15,4	-16,6
2,519	-19,3	-22,0
2,5195	-23,0	-26,2
2,52	-26,0	-28,5
2,5205	-28,0	-28,8
2,521	-28,7	-27,3
2,5215	-27,8	-24,2
2,522	-25,1	-19,3
2,5225	-20,8	-13,1
2,523	-15,9	-6,9
2,5235	-12,0	-2,3
2,524	-10,1	-0,3
2,5245	-10,2	-0,4
2,525	-11,8	-1,8
2,5255	-14,3	-3,7
2,526	-16,9	-5,6
2,5265	-19,2	-6,8
2,527	-20,6	-7,0
2,5275	-20,6	-6,1
2,528	-19,2	-4,3
2,5285	-16,7	-1,6
2,529	-13,7	1,5
2,5295	-10,6	4,5
2,53	-8,2	6,9
2,5305	-6,8	7,9
2,531	-6,7	7,3
2,5315	-7,8	5,5
2,532	-9,7	3,3
2,5325	-11,5	1,3
2,533	-12,8	-0,3
2,5335	-13,5	-1,5
2,534	-13,6	-2,4
2,5345	-13,5	-3,5
2,535	-13,8	-5,4
2,5355	-14,9	-8,0
2,536	-16,8	-11,0
2,5365	-18,9	-13,5
2,537	-20,5	-15,1
2,5375	-21,2	-15,5
2,538	-20,7	-14,7
2,5385	-19,2	-12,7
2,539	-17,0	-9,6
2,5395	-14,3	-6,0
2,54	-11,8	-2,7
2,5405	-9,9	-0,1
2,541	-9,0	1,3
2,5415	-9,2	1,5
2,542	-10,2	0,8
2,5425	-11,3	-0,2
2,543	-12,2	-0,8
2,5435	-12,3	-0,2
2,544	-11,7	1,5
2,5445	-10,8	3,8
2,545	-10,0	5,8
2,5455	-9,2	7,5
2,546	-8,1	8,6
2,5465	-6,3	9,2
2,547	-4,2	9,0
2,5475	-2,3	7,9
2,548	-1,7	6,0
2,5485	-2,1	4,0
2,549	-2,8	2,6
2,5495	-3,1	1,9
2,55	-3,0	1,9
2,5505	-2,7	2,2
2,551	-2,5	2,4
2,5515	-2,8	1,7
2,552	-3,9	-0,4
2,5525	-5,7	-3,3
2,553	-7,7	-6,1
2,5535	-9,6	-8,2
2,554	-11,6	-9,3
2,5545	-13,6	-9,6
2,555	-15,4	-9,1
2,5555	-16,5	-8,0
2,556	-16,6	-6,3
2,5565	-16,2	-4,4
2,557	-15,8	-3,4
2,5575	-15,8	-3,8
2,558	-16,4	-5,5
2,5585	-17,8	-7,7
2,559	-19,9	-9,6
2,5595	-22,5	-10,8
2,56	-24,9	-11,0
2,5605	-26,3	-9,9
2,561	-26,0	-7,6
2,5615	-24,2	-4,2
2,562	-21,2	-0,0
2,5625	-17,8	4,4
2,563	-14,5	8,3
2,5635	-12,2	10,7
2,564	-11,1	11,1
2,5645	-11,5	9,8
2,565	-12,8	7,5
2,5655	-14,3	5,4
2,566	-15,4	3,8
2,5665	-15,9	2,4
2,567	-15,8	1,0
2,5675	-15,5	-0,7
2,568	-15,4	-2,7
2,5685	-15,9	-5,2
2,569	-17,1	-8,1
2,5695	-18,7	-10,8
2,57	-20,2	-12,7
2,5705	-21,2	-13,7
2,571	-21,5	-14,0
2,5715	-20,9	-13,5
2,572	-19,4	-12,0
2,5725	-16,9	-9,6
2,573	-13,6	-6,8
2,5735	-10,2	-4,6
2,574	-7,2	-3,1
2,5745	-5,0	-2,3
2,575	-3,4	-1,9
2,5755	-2,7	-1,6
2,576	-2,4	-1,3
2,5765	-2,4	-1,0
2,577	-2,0	-0,3
2,5775	-0,9	0,8
2,578	0,9	2,2
2,5785	3,2	4,2
2,579	5,6	6,5
2,5795	7,7	8,7
2,58	9,2	10,2
2,5805	9,7	10,6
2,581	8,9	9,7
2,5815	7,1	7,8
2,582	4,6	6,0
2,5825	2,2	4,7
2,583	-0,0	3,9
2,5835	-1,8	3,0
2,584	-3,4	1,5
2,5845	-4,9	-0,8
2,585	-6,6	-3,9
2,5855	-8,4	-7,3
2,586	-10,1	-10,1
2,5865	-11,1	-11,8
2,587	-11,4	-12,5
2,5875	-11,2	-12,3
2,588	-10,5	-11,3
2,5885	-9,4	-9,4
2,589	-7,9	-6,8
2,5895	-6,3	-4,0
2,59	-4,9	-1,7
2,5905	-4,1	-0,3
2,591	-3,8	0,2
2,5915	-3,7	0,0
2,592	-3,7	-0,6
2,5925	-3,9	-1,3
2,593	-4,4	-1,7
2,5935	-5,4	-1,3
2,594	-6,9	-0,2
2,5945	-8,9	1,4
2,595	-10,6	3,3
2,5955	-11,5	5,3
2,596	-11,2	7,3
2,5965	-9,9	8,9
2,597	-8,3	9,7
2,5975	-7,2	9,4
2,598	-7,2	8,5
2,5985	-8,3	7,3
2,599	-10,1	6,2
2,5995	-11,8	5,7
2,6	-12,9	5,9
2,6005	-12,6	7,1
2,601	-10,7	9,3
2,6015	-7,8	12,0
2,602	-5,0	14,1
2,6025	-3,8	14,3
2,603	-4,6	12,2
2,6035	-7,0	8,4
2,604	-9,8	3,7
2,6045	-11,9	-0,8
2,605	-12,6	-3,9
2,6055	-11,7	-5,0
2,606	-9,5	-4,5
2,6065	-7,2	-3,4
2,607	-5,5	-2,5
2,6075	-4,8	-2,0
2,608	-5,3	-2,2
2,6085	-6,8	-3,0
2,609	-9,3	-4,5
2,6095	-12,0	-6,1
2,61	-13,9	-6,6
2,6105	-14,3	-5,1
2,611	-12,9	-1,6
2,6115	-10,3	3,2
2,612	-7,1	8,1
2,6125	-3,7	12,7
2,613	-0,4	16,4
2,6135	2,0	18,6
2,614	2,9	19,0
2,6145	2,3	17,7
2,615	0,6	15,6
2,6155	-1,1	13,4
2,616	-2,4	11,7
2,6165	-3,2	10,1
2,617	-3,5	8,5
2,6175	-3,5	6,7
2,618	-3,8	4,5
2,6185	-5,1	1,4
2,619	-7,5	-2,7
2,6195	-10,3	-6,6
2,62	-12,6	-9,5
2,6205	-14,0	-10,9
2,621	-14,7	-11,3
2,6215	-15,2	-11,3
2,622	-15,3	-10,9
2,6225	-14,8	-9,8
2,623	-13,4	-7,8
2,6235	-11,9	-5,6
2,624	-10,8	-3,7
2,6245	-10,3	-2,8
2,625	-10,3	-2,8
2,6255	-10,5	-3,3
2,626	-10,5	-3,9
2,6265	-10,0	-4,1
2,627	-8,8	-3,4
2,6275	-6,9	-1,7
2,628	-4,8	0,9
2,6285	-3,0	4,0
2,629	-1,6	7,2
2,6295	-0,5	9,9
2,63	0,2	11,6
2,6305	0,4	12,1
2,631	-0,2	11,2
2,6315	-1,3	9,5
2,632	-2,1	8,0
2,6325	-2,3	7,3
2,633	-2,0	7,3
2,6335	-1,3	7,8
2,634	-0,6	8,9
2,6345	0,0	10,5
2,635	0,1	11,9
2,6355	-0,8	12,4
2,636	-2,7	12,0
2,6365	-5,1	10,9
2,637	-7,5	9,7
2,6375	-9,9	8,3
2,638	-12,2	6,6
2,6385	-14,3	4,8
2,639	-15,6	3,1
2,6395	-15,5	2,2
2,64	-14,5	1,9
2,6405	-13,7	1,5
2,641	-14,0	-0,1
2,6415	-16,0	-3,5
2,642	-19,4	-8,3
2,6425	-23,3	-13,2
2,643	-26,6	-16,5
2,6435	-27,8	-16,9
2,644	-26,5	-14,7
2,6445	-23,4	-10,6
2,645	-19,8	-5,9
2,6455	-16,6	-1,4
2,646	-13,8	2,2
2,6465	-11,7	4,3
2,647	-10,7	4,8
2,6475	-10,8	3,7
2,648	-12,1	1,9
2,6485	-13,8	0,2
2,649	-15,1	-0,8
2,6495	-15,4	-1,1
2,65	-14,7	-0,6
2,6505	-13,3	0,3
2,651	-11,7	1,3
2,6515	-11,0	1,3
2,652	-11,7	-0,5
2,6525	-13,9	-3,8
2,653	-16,8	-7,2
2,6535	-19,3	-9,7
2,654	-20,9	-11,1
2,6545	-21,7	-11,5
2,655	-21,5	-10,9
2,6555	-20,5	-9,1
2,656	-18,8	-6,4
2,6565	-16,8	-3,7
2,657	-15,2	-1,7
2,6575	-14,1	-0,7
2,658	-13,5	-0,3
2,6585	-13,3	-0,3
2,659	-13,1	-0,7
2,6595	-13,0	-1,3
2,66	-12,8	-1,5
2,6605	-12,4	-0,9
2,661	-11,9	0,3
2,6615	-11,1	2,0
2,662	-9,9	3,9
2,6625	-8,2	6,0
2,663	-6,2	7,8
2,6635	-4,7	8,5
2,664	-4,2	8,0
2,6645	-4,9	6,3
2,665	-6,4	4,1
2,6655	-8,0	2,1
2,666	-9,2	0,7
2,6665	-9,8	-0,3
2,667	-10,1	-0,9
2,6675	-10,3	-1,3
2,668	-10,7	-1,6
2,6685	-11,7	-2,4
2,669	-13,4	-3,8
2,6695	-15,8	-5,6
2,67	-18,3	-7,1
2,6705	-20,3	-8,0
2,671	-21,8	-8,3
2,6715	-22,3	-8,0
2,672	-22,1	-6,9
2,6725	-20,9	-4,8
2,673	-18,9	-2,2
2,6735	-16,6	0,0
2,674	-14,6	1,4
2,6745	-13,3	1,9
2,675	-12,8	2,0
2,6755	-13,4	1,9
2,676	-14,6	1,8
2,6765	-15,7	2,4
2,677	-15,7	3,9
2,6775	-14,4	6,1
2,678	-12,4	8,6
2,6785	-10,6	10,7
2,679	-9,4	12,1
2,6795	-9,0	12,6
2,68	-9,2	12,1
2,6805	-10,1	10,4
2,681	-11,4	7,6
2,6815	-12,6	4,1
2,682	-13,5	0,8
2,6825	-13,8	-1,5
2,683	-13,5	-2,1
2,6835	-12,0	-0,9
2,684	-9,2	2,1
2,6845	-5,4	5,9
2,685	-2,1	9,0
2,6855	-0,6	10,3
2,686	-1,3	9,8
2,6865	-3,4	8,1
2,687	-6,0	6,3
2,6875	-8,8	4,8
2,688	-11,2	3,5
2,6885	-13,1	2,8
2,689	-14,3	2,7
2,6895	-14,8	3,0
2,69	-15,0	3,5
2,6905	-15,2	3,8
2,691	-15,9	3,7
2,6915	-17,2	2,9
2,692	-18,8	1,6
2,6925	-20,4	-0,1
2,693	-21,8	-1,8
2,6935	-22,3	-2,8
2,694	-21,9	-2,8
2,6945	-21,0	-2,0
2,695	-19,7	-0,3
2,6955	-18,0	1,8
2,696	-15,9	4,3
2,6965	-13,8	6,5
2,697	-12,6	7,5
2,6975	-13,1	6,7
2,698	-15,3	4,3
2,6985	-18,1	1,6
2,699	-20,4	-0,0
2,6995	-21,4	-0,1
2,7	-21,1	1,2
2,7005	-20,0	3,0
2,701	-18,8	4,5
2,7015	-18,1	4,6
2,702	-18,3	3,1
2,7025	-19,3	0,5
2,703	-20,6	-2,2
2,7035	-21,7	-4,0
2,704	-22,7	-4,9
2,7045	-23,3	-5,1
2,705	-23,4	-4,8
2,7055	-23,3	-4,3
2,706	-22,9	-3,5
2,7065	-22,4	-2,6
2,707	-22,0	-1,9
2,7075	-21,8	-1,7
2,708	-22,1	-1,7
2,7085	-22,5	-2,0
2,709	-23,0	-2,6
2,7095	-23,3	-3,3
2,71	-23,4	-3,4
2,7105	-22,7	-2,4
2,711	-21,1	-0,2
2,7115	-18,4	2,9
2,712	-14,9	6,7
2,7125	-11,0	10,6
2,713	-7,0	14,0
2,7135	-3,6	15,9
2,714	-1,3	15,7
2,7145	-0,3	13,7
2,715	-0,4	10,8
2,7155	-1,1	7,9
2,716	-1,7	5,6
2,7165	-2,2	3,9
2,717	-2,8	2,5
2,7175	-3,5	1,3
2,718	-4,7	-0,2
2,7185	-6,5	-2,4
2,719	-9,1	-5,2
2,7195	-12,2	-7,7
2,72	-15,6	-9,1
2,7205	-18,6	-9,1
2,721	-20,9	-7,9
2,7215	-22,3	-5,5
2,722	-23,0	-2,4
2,7225	-22,8	1,5
2,723	-22,0	5,7
2,7235	-20,7	9,6
2,724	-19,6	12,7
2,7245	-19,0	14,7
2,725	-18,9	15,7
2,7255	-19,3	15,6
2,726	-19,7	14,7
2,7265	-19,9	13,4
2,727	-19,4	12,6
2,7275	-18,3	12,5
2,728	-16,8	13,0
2,7285	-15,7	13,5
2,729	-15,1	13,7
2,7295	-15,2	13,2
2,73	-16,0	11,6
2,7305	-17,5	8,8
2,731	-19,6	5,0
2,7315	-21,7	1,2
2,732	-23,4	-1,7
2,7325	-24,3	-3,3
2,733	-24,7	-4,0
2,7335	-25,1	-4,6
2,734	-25,8	-5,3
2,7345	-26,5	-6,3
2,735	-27,3	-7,4
2,7355	-28,1	-8,8
2,736	-29,1	-10,2
2,7365	-30,4	-11,2
2,737	-31,5	-11,5
2,7375	-32,1	-11,1
2,738	-31,8	-10,2
2,7385	-30,4	-9,1
2,739	-28,1	-7,8
2,7395	-25,0	-6,2
2,74	-21,8	-4,5
2,7405	-19,0	-2,9
2,741	-16,9	-1,8
2,7415	-15,5	-0,8
2,742	-14,3	0,2
2,7425	-13,1	1,4
2,743	-11,9	3,2
2,7435	-10,4	5,7
2,744	-8,3	8,8
2,7445	-5,6	12,5
2,745	-2,4	16,4
2,7455	0,9	20,1
2,746	3,9	23,0
2,7465	5,8	24,1
2,747	6,3	23,0
2,7475	5,1	19,8
2,748	3,0	15,4
2,7485	0,9	11,3
2,749	-0,6	8,4
2,7495	-1,3	6,8
2,75	-1,4	6,1
2,7505	-1,4	5,7
2,751	-1,9	5,1
2,7515	-3,1	4,1
2,752	-5,0	2,5
2,7525	-7,4	0,8
2,753	-9,7	-0,7
2,7535	-11,7	-1,3
2,754	-13,3	-1,4
2,7545	-14,7	-1,3
2,755	-15,5	-0,9
2,7555	-15,5	-0,2
2,756	-14,5	1,2
2,7565	-12,9	2,9
2,757	-11,3	4,4
2,7575	-10,2	5,4
2,758	-9,8	5,7
2,7585	-9,7	5,5
2,759	-9,8	5,0
2,7595	-9,8	4,5
2,76	-9,6	4,5
2,7605	-8,8	5,3
2,761	-7,5	6,8
2,7615	-5,8	8,8
2,762	-4,0	11,3
2,7625	-2,1	13,7
2,763	-0,3	15,7
2,7635	1,1	16,7
2,764	1,6	16,7
2,7645	1,1	15,8
2,765	-0,2	14,6
2,7655	-1,7	13,2
2,766	-3,1	11,6
2,7665	-4,4	9,6
2,767	-5,6	7,3
2,7675	-6,8	5,3
2,768	-8,0	3,1
2,7685	-9,7	0,3
2,769	-12,1	-3,0
2,7695	-14,8	-6,4
2,77	-17,0	-8,7
2,7705	-18,3	-9,4
2,771	-18,4	-8,8
2,7715	-17,7	-7,0
2,772	-16,6	-4,6
2,7725	-15,4	-1,9
2,773	-14,3	0,6
2,7735	-13,5	2,6
2,774	-12,9	4,0
2,7745	-12,1	5,2
2,775	-10,9	6,7
2,7755	-9,2	8,3
2,776	-7,1	10,0
2,7765	-5,0	11,7
2,777	-3,0	13,4
2,7775	-1,0	15,1
2,778	0,9	16,8
2,7785	2,8	18,3
2,779	4,5	19,3
2,7795	5,9	19,8
2,78	6,5	19,7
2,7805	6,0	18,7
2,781	4,4	16,5
2,7815	2,2	13,3
2,782	-0,1	10,3
2,7825	-1,5	8,2
2,783	-2,0	7,2
2,7835	-1,8	6,8
2,784	-1,2	6,8
2,7845	-0,5	6,8
2,785	-0,3	6,4
2,7855	-1,2	5,4
2,786	-3,0	4,2
2,7865	-5,4	3,2
2,787	-8,1	2,8
2,7875	-10,8	2,4
2,788	-13,0	1,7
2,7885	-14,3	1,2
2,789	-14,4	1,5
2,7895	-13,6	2,6
2,79	-12,8	3,9
2,7905	-12,6	4,4
2,791	-13,3	4,2
2,7915	-14,3	3,7
2,792	-15,0	3,5
2,7925	-15,3	3,5
2,793	-15,1	4,1
2,7935	-14,3	5,3
2,794	-13,2	7,1
2,7945	-11,9	9,3
2,795	-10,7	11,4
2,7955	-9,3	13,3
2,796	-7,6	15,0
2,7965	-5,8	16,0
2,797	-4,1	16,1
2,7975	-2,6	15,1
2,798	-1,6	13,2
2,7985	-1,1	10,8
2,799	-1,3	8,1
2,7995	-2,4	5,4
2,8	-3,8	3,0
2,8005	-4,8	1,2
2,801	-4,9	0,4
2,8015	-4,0	0,5
2,802	-2,8	0,8
2,8025	-2,0	1,0
2,803	-2,0	0,9
2,8035	-3,0	0,9
2,804	-4,6	1,0
2,8045	-5,8	1,6
2,805	-6,0	3,1
2,8055	-5,0	5,4
2,806	-3,1	8,2
2,8065	-0,8	10,8
2,807	1,1	12,7
2,8075	1,9	13,3
2,808	1,3	12,6
2,8085	-0,4	10,7
2,809	-2,8	8,4
2,8095	-5,0	6,6
2,81	-6,0	6,4
2,8105	-5,2	8,0
2,811	-2,9	10,9
2,8115	0,0	14,3
2,812	3,0	18,0
2,8125	5,7	21,9
2,813	8,0	25,4
2,8135	9,6	27,7
2,814	9,9	28,0
2,8145	8,8	26,2
2,815	6,7	22,9
2,8155	4,1	19,4
2,816	1,9	16,3
2,8165	0,6	13,8
2,817	-0,1	11,9
2,8175	-0,8	10,2
2,818	-1,9	7,9
2,8185	-3,8	4,7
2,819	-6,3	0,8
2,8195	-8,6	-2,8
2,82	-10,5	-5,3
2,8205	-12,0	-6,4
2,821	-13,3	-6,6
2,8215	-14,6	-5,9
2,822	-15,5	-4,3
2,8225	-15,4	-1,9
2,823	-14,4	1,0
2,8235	-12,9	3,7
2,824	-11,0	6,2
2,8245	-9,0	8,6
2,825	-6,8	10,9
2,8255	-4,9	12,7
2,826	-3,3	13,7
2,8265	-1,9	14,0
2,827	-0,4	14,3
2,8275	1,4	15,0
2,828	3,5	16,1
2,8285	5,8	17,5
2,829	7,9	19,2
2,8295	9,8	21,1
2,83	10,7	22,4
2,8305	10,2	22,0
2,831	8,2	19,5
2,8315	4,9	15,1
2,832	1,1	10,0
2,8325	-2,4	5,7
2,833	-4,9	3,0
2,8335	-6,3	2,2
2,834	-6,6	2,8
2,8345	-6,3	3,6
2,835	-6,4	3,5
2,8355	-7,5	1,8
2,836	-9,5	-1,1
2,8365	-11,9	-4,0
2,837	-13,9	-5,7
2,8375	-14,6	-5,5
2,838	-13,8	-3,4
2,8385	-11,7	0,1
2,839	-8,9	4,3
2,8395	-6,1	8,2
2,84	-4,3	10,8
2,8405	-4,2	11,6
2,841	-5,4	10,6
2,8415	-7,0	8,4
2,842	-8,2	6,0
2,8425	-8,6	4,1
2,843	-7,7	3,1
2,8435	-5,7	3,4
2,844	-2,8	4,8
2,8445	0,3	6,9
2,845	3,0	9,3
2,8455	5,6	12,0
2,846	8,2	15,0
2,8465	10,3	17,4
2,847	11,5	18,4
2,8475	11,1	17,7
2,848	9,4	15,6
2,8485	7,0	13,0
2,849	4,6	10,8
2,8495	2,6	9,5
2,85	1,4	9,0
2,8505	1,0	9,0
2,851	0,6	8,6
2,8515	-0,8	6,8
2,852	-3,9	3,3
2,8525	-8,1	-1,0
2,853	-12,3	-4,8
2,8535	-14,9	-6,9
2,854	-15,3	-6,8
2,8545	-13,8	-5,3
2,855	-11,7	-2,8
2,8555	-9,8	-0,1
2,856	-8,4	2,8
2,8565	-7,2	5,4
2,857	-5,8	7,6
2,8575	-4,2	9,5
2,858	-2,5	10,9
2,8585	-0,8	11,7
2,859	0,5	12,0
2,8595	1,2	11,8
2,86	1,5	11,8
2,8605	2,0	12,5
2,861	3,3	14,2
2,8615	5,7	16,8
2,862	8,8	20,0
2,8625	12,0	23,1
2,863	14,6	25,5
2,8635	16,2	26,8
2,864	16,7	26,5
2,8645	15,9	24,6
2,865	14,2	21,7
2,8655	12,1	18,4
2,866	10,0	15,3
2,8665	8,2	12,6
2,867	6,7	10,3
2,8675	5,4	8,5
2,868	3,9	6,9
2,8685	2,0	4,9
2,869	-0,3	2,8
2,8695	-2,3	0,8
2,87	-3,8	-0,3
2,8705	-5,0	-0,6
2,871	-6,6	-0,8
2,8715	-8,4	-0,7
2,872	-9,9	-0,2
2,8725	-10,4	1,1
2,873	-9,7	3,2
2,8735	-8,2	5,2
2,874	-6,4	6,6
2,8745	-4,6	7,3
2,875	-3,0	7,3
2,8755	-2,3	6,6
2,876	-2,9	4,9
2,8765	-4,8	2,5
2,877	-7,1	0,1
2,8775	-8,9	-1,2
2,878	-9,3	-0,8
2,8785	-7,9	1,3
2,879	-4,8	4,5
2,8795	-0,7	8,2
2,88	3,6	11,6
2,8805	6,9	14,1
2,881	8,6	15,3
2,8815	8,1	15,3
2,882	6,3	14,8
2,8825	4,1	14,2
2,883	2,3	14,0
2,8835	1,4	14,1
2,884	0,9	14,0
2,8845	0,6	13,1
2,885	0,2	11,2
2,8855	-0,7	8,4
2,886	-1,9	5,1
2,8865	-3,5	2,2
2,887	-5,1	0,1
2,8875	-6,0	-1,2
2,888	-5,9	-1,6
2,8885	-4,6	-1,3
2,889	-2,0	-0,1
2,8895	1,4	1,8
2,89	4,7	4,0
2,8905	7,1	5,9
2,891	8,6	7,0
2,8915	9,3	7,6
2,892	9,9	7,7
2,8925	10,3	7,5
2,893	10,7	7,4
2,8935	11,3	8,3
2,894	12,6	10,7
2,8945	14,5	14,3
2,895	16,5	18,3
2,8955	18,1	21,9
2,896	19,0	24,7
2,8965	19,0	26,3
2,897	17,8	26,6
2,8975	15,1	25,3
2,898	11,1	22,8
2,8985	6,8	19,9
2,899	3,3	17,2
2,8995	1,0	14,7
2,9	-0,4	12,2
2,9005	-1,3	9,6
2,901	-1,9	7,0
2,9015	-2,7	4,7
2,902	-3,6	2,5
2,9025	-4,4	0,8
2,903	-4,8	-0,1
2,9035	-4,6	-0,1
2,904	-3,9	0,3
2,9045	-3,3	0,8
2,905	-2,6	1,2
2,9055	-2,0	1,8
2,906	-1,2	2,9
2,9065	-0,5	4,1
2,907	0,0	4,9
2,9075	0,5	5,3
2,908	1,4	5,7
2,9085	2,6	6,3
2,909	3,7	7,0
2,9095	4,1	7,9
2,91	4,1	9,0
2,9105	4,3	10,6
2,911	4,7	12,3
2,9115	5,1	13,6
2,912	5,4	14,0
2,9125	5,3	14,0
2,913	5,2	13,7
2,9135	5,1	13,3
2,914	5,1	12,3
2,9145	5,3	10,6
2,915	5,4	8,4
2,9155	5,1	6,4
2,916	4,2	5,0
2,9165	2,7	3,9
2,917	0,8	2,8
2,9175	-1,0	1,8
2,918	-2,7	0,4
2,9185	-4,1	-1,5
2,919	-5,5	-3,9
2,9195	-6,9	-6,3
2,92	-8,2	-7,9
2,9205	-9,4	-8,7
2,921	-10,3	-8,7
2,9215	-10,6	-7,9
2,922	-9,9	-5,9
2,9225	-8,0	-2,8
2,923	-5,2	1,1
2,9235	-1,9	4,8
2,924	1,2	7,4
2,9245	3,3	8,6
2,925	4,3	8,3
2,9255	4,4	7,0
2,926	4,0	5,4
2,9265	3,8	4,6
2,927	4,2	5,1
2,9275	5,8	7,0
2,928	8,4	9,9
2,9285	11,8	13,6
2,929	15,1	17,8
2,9295	17,7	21,7
2,93	18,9	24,1
2,9305	18,8	24,3
2,931	17,5	22,5
2,9315	16,0	20,0
2,932	15,2	17,9
2,9325	15,4	16,9
2,933	16,4	16,5
2,9335	17,3	16,2
2,934	17,6	15,7
2,9345	17,3	14,8
2,935	16,3	13,5
2,9355	14,4	11,4
2,936	12,2	8,6
2,9365	10,2	5,9
2,937	8,9	4,1
2,9375	8,1	3,7
2,938	8,0	4,7
2,9385	8,4	6,8
2,939	9,5	9,4
2,9395	11,1	11,9
2,94	12,6	13,4
2,9405	13,1	13,0
2,941	12,2	10,4
2,9415	10,0	6,3
2,942	6,9	1,3
2,9425	3,6	-3,8
2,943	0,8	-7,7
2,9435	-0,6	-9,3
2,944	-0,1	-8,1
2,9445	1,9	-4,8
2,945	4,3	-0,5
2,9455	6,2	3,5
2,946	7,3	6,6
2,9465	7,4	8,1
2,947	6,8	8,1
2,9475	5,7	6,6
2,948	4,4	4,4
2,9485	3,5	2,4
2,949	3,1	1,3
2,9495	2,9	1,0
2,95	2,8	1,4
2,9505	2,9	2,0
2,951	3,1	2,5
2,9515	3,3	2,3
2,952	3,0	0,9
2,9525	2,1	-1,2
2,953	1,0	-3,0
2,9535	0,0	-3,6
2,954	-0,8	-2,9
2,9545	-1,4	-1,4
2,955	-1,7	0,6
2,9555	-1,3	2,6
2,956	0,2	4,5
2,9565	2,4	5,9
2,957	4,9	6,5
2,9575	7,3	6,2
2,958	9,2	5,4
2,9585	10,2	4,4
2,959	10,5	3,3
2,9595	10,4	2,2
2,96	10,3	1,3
2,9605	10,9	1,5
2,961	12,4	2,8
2,9615	14,4	4,8
2,962	16,8	6,9
2,9625	18,9	8,8
2,963	20,1	9,9
2,9635	19,5	9,7
2,964	16,8	7,8
2,9645	12,8	4,7
2,965	8,5	1,3
2,9655	5,0	-1,3
2,966	2,2	-2,7
2,9665	-0,2	-3,4
2,967	-2,3	-3,9
2,9675	-4,0	-4,4
2,968	-5,1	-5,1
2,9685	-6,0	-6,2
2,969	-7,0	-7,9
2,9695	-8,3	-9,6
2,97	-9,7	-10,9
2,9705	-11,0	-11,4
2,971	-12,1	-11,3
2,9715	-12,8	-10,8
2,972	-12,6	-9,9
2,9725	-10,8	-8,4
2,973	-7,2	-6,1
2,9735	-2,6	-3,5
2,974	1,9	-1,3
2,9745	5,6	0,3
2,975	8,4	1,1
2,9755	10,5	1,5
2,976	12,3	2,1
2,9765	14,1	3,2
2,977	15,8	5,4
2,9775	17,8	8,5
2,978	20,2	12,2
2,9785	22,6	15,9
2,979	25,0	18,9
2,9795	27,2	20,8
2,98	28,7	21,5
2,9805	29,4	20,8
2,981	28,9	19,2
2,9815	27,8	16,9
2,982	26,9	14,8
2,9825	26,9	13,1
2,983	27,7	12,0
2,9835	28,5	10,9
2,984	28,5	9,3
2,9845	27,4	6,9
2,985	25,0	3,7
2,9855	21,4	-0,3
2,986	17,3	-4,5
2,9865	13,4	-7,7
2,987	10,5	-9,3
2,9875	8,7	-9,3
2,988	7,7	-8,3
2,9885	7,3	-6,2
2,989	7,6	-3,2
2,9895	8,9	0,4
2,99	10,9	3,7
2,9905	12,9	6,0
2,991	14,0	7,2
2,9915	14,2	7,1
2,992	13,4	6,1
2,9925	11,9	4,2
2,993	10,3	2,2
2,9935	9,1	0,9
2,994	8,7	1,2
2,9945	9,4	2,9
2,995	10,9	5,4
2,9955	13,2	8,0
2,996	15,9	10,4
2,9965	18,9	12,3
2,997	21,9	13,3
2,9975	24,3	13,4
2,998	26,0	13,2
2,9985	27,3	13,0
2,999	28,2	13,2
2,9995	28,5	13,3
3	28,1	12,5
3,0005	26,7	10,7
3,001	24,3	8,0
3,0015	21,2	4,4
3,002	17,0	-0,1
3,0025	12,2	-5,2
3,003	7,4	-10,3
3,0035	3,0	-14,3
3,004	-0,7	-17,1
3,0045	-3,8	-18,6
3,005	-6,3	-18,7
3,0055	-7,8	-17,4
3,006	-8,2	-15,2
3,0065	-7,9	-12,5
3,007	-7,2	-9,8
3,0075	-6,3	-7,6
3,008	-5,5	-6,2
3,0085	-5,1	-5,7
3,009	-5,1	-6,2
3,0095	-5,2	-6,7
3,01	-4,4	-6,1
3,0105	-2,0	-3,8
3,011	2,0	-0,1
3,0115	7,1	4,5
3,012	12,5	9,1
3,0125	17,3	13,2
3,013	20,9	16,1
3,0135	22,8	17,2
3,014	22,9	16,7
3,0145	21,9	15,2
3,015	20,3	13,5
3,0155	18,6	12,0
3,016	16,8	10,9
3,0165	14,7	9,8
3,017	12,2	8,5
3,0175	9,7	6,9
3,018	7,2	4,8
3,0185	4,8	1,9
3,019	2,3	-1,7
3,0195	-0,1	-5,2
3,02	-2,2	-7,9
3,0205	-3,9	-9,7
3,021	-5,3	-10,7
3,0215	-6,3	-11,1
3,022	-6,4	-10,7
3,0225	-5,0	-9,2
3,023	-2,1	-7,0
3,0235	1,3	-4,7
3,024	4,3	-2,8
3,0245	6,0	-2,0
3,025	6,5	-2,3
3,0255	6,0	-3,3
3,026	4,9	-4,7
3,0265	4,0	-5,8
3,027	3,8	-6,0
3,0275	4,4	-5,4
3,028	5,4	-4,2
3,0285	6,3	-2,7
3,029	6,8	-1,2
3,0295	7,1	0,2
3,03	7,2	0,9
3,0305	7,2	0,8
3,031	7,1	-0,0
3,0315	7,0	-1,1
3,032	7,0	-1,7
3,0325	7,1	-1,7
3,033	7,3	-1,5
3,0335	7,5	-1,2
3,034	7,4	-1,1
3,0345	7,1	-1,3
3,035	6,4	-2,0
3,0355	5,3	-3,0
3,036	4,1	-3,8
3,0365	3,3	-3,5
3,037	3,4	-1,9
3,0375	4,1	0,5
3,038	4,8	2,8
3,0385	5,3	4,9
3,039	5,5	6,7
3,0395	5,9	8,5
3,04	6,6	10,1
3,0405	7,3	11,2
3,041	7,5	11,5
3,0415	6,9	11,0
3,042	5,7	9,8
3,0425	4,2	8,0
3,043	3,0	6,4
3,0435	2,8	5,5
3,044	3,6	5,5
3,0445	5,3	5,8
3,045	7,6	6,3
3,0455	10,1	6,6
3,046	12,4	6,4
3,0465	14,0	5,5
3,047	14,2	3,6
3,0475	12,9	1,0
3,048	10,6	-1,9
3,0485	8,0	-4,2
3,049	6,0	-5,4
3,0495	4,8	-5,7
3,05	4,1	-5,9
3,0505	3,4	-6,3
3,051	2,8	-6,5
3,0515	2,3	-6,4
3,052	1,4	-6,3
3,0525	-0,1	-6,5
3,053	-2,2	-6,9
3,0535	-4,3	-7,2
3,054	-5,5	-6,9
3,0545	-5,6	-6,0
3,055	-4,7	-4,4
3,0555	-3,1	-2,2
3,056	-1,0	0,3
3,0565	1,3	2,8
3,057	3,4	4,8
3,0575	5,4	6,1
3,058	7,1	6,8
3,0585	8,4	6,8
3,059	9,4	6,4
3,0595	10,1	5,7
3,06	10,9	5,5
3,0605	12,1	6,2
3,061	13,8	8,0
3,0615	16,3	10,7
3,062	19,1	14,2
3,0625	22,0	17,9
3,063	24,5	21,1
3,0635	26,0	22,7
3,064	26,3	22,4
3,0645	25,7	20,7
3,065	24,6	18,3
3,0655	23,3	16,4
3,066	22,2	15,1
3,0665	21,2	14,3
3,067	20,3	13,8
3,0675	19,5	13,2
3,068	18,6	11,4
3,0685	17,2	7,5
3,069	15,0	2,1
3,0695	12,4	-3,4
3,07	9,9	-7,5
3,0705	7,8	-9,7
3,071	6,3	-10,3
3,0715	5,5	-9,8
3,072	5,7	-8,3
3,0725	6,8	-5,8
3,073	8,6	-2,7
3,0735	10,5	0,5
3,074	11,8	2,9
3,0745	12,3	4,6
3,075	12,6	5,8
3,0755	13,0	6,8
3,076	13,6	7,8
3,0765	14,5	9,2
3,077	16,1	11,1
3,0775	18,0	13,3
3,078	20,0	15,6
3,0785	21,4	17,4
3,079	22,4	18,8
3,0795	23,2	19,7
3,08	23,4	19,6
3,0805	22,5	18,0
3,081	20,3	14,9
3,0815	17,6	11,1
3,082	15,5	8,3
3,0825	14,6	7,0
3,083	14,3	6,9
3,0835	13,9	7,2
3,084	13,3	7,4
3,0845	12,2	7,3
3,085	10,6	6,6
3,0855	8,5	4,7
3,086	6,2	1,7
3,0865	4,1	-1,8
3,087	2,7	-5,2
3,0875	1,8	-8,0
3,088	1,3	-10,1
3,0885	1,0	-10,8
3,089	1,3	-9,8
3,0895	2,7	-7,5
3,09	4,8	-4,8
3,0905	7,0	-2,5
3,091	8,9	-1,1
3,0915	10,5	-0,2
3,092	11,8	0,3
3,0925	13,0	0,3
3,093	14,3	0,3
3,0935	15,6	0,6
3,094	16,8	1,5
3,0945	17,8	3,0
3,095	18,9	5,0
3,0955	20,3	7,4
3,096	22,3	10,3
3,0965	24,4	12,9
3,097	25,7	14,6
3,0975	25,4	15,1
3,098	23,5	14,2
3,0985	20,8	12,7
3,099	18,0	11,2
3,0995	15,9	10,2
3,1	14,3	9,6
3,1005	13,2	9,1
3,101	12,1	8,2
3,1015	11,0	6,6
3,102	9,9	4,4
3,1025	9,3	2,0
3,103	9,4	0,3
3,1035	10,4	0,2
3,104	11,8	1,1
3,1045	12,8	2,2
3,105	13,3	3,0
3,1055	13,3	3,6
3,106	13,6	4,7
3,1065	14,3	6,2
3,107	15,7	8,1
3,1075	17,5	10,1
3,108	19,9	12,3
3,1085	22,5	14,6
3,109	25,0	16,5
3,1095	27,0	17,6
3,11	28,4	17,9
3,1105	29,2	18,0
3,111	29,7	18,1
3,1115	30,1	18,6
3,112	30,8	19,4
3,1125	32,4	20,8
3,113	35,0	22,6
3,1135	38,3	24,5
3,114	41,4	26,0
3,1145	43,4	26,7
3,115	44,0	26,4
3,1155	43,2	25,3
3,116	41,4	23,6
3,1165	39,8	21,9
3,117	38,8	20,6
3,1175	38,7	19,8
3,118	39,2	19,0
3,1185	39,3	17,2
3,119	38,4	14,4
3,1195	36,6	11,2
3,12	34,6	8,7
3,1205	33,1	7,6
3,121	32,2	7,9
3,1215	31,7	9,2
3,122	31,8	11,3
3,1225	32,6	13,9
3,123	34,1	16,7
3,1235	35,5	18,8
3,124	36,4	20,0
3,1245	36,7	20,2
3,125	36,8	19,8
3,1255	36,8	19,4
3,126	36,8	19,4
3,1265	37,1	20,1
3,127	37,5	21,2
3,1275	38,3	22,4
3,128	38,8	22,9
3,1285	38,9	22,7
3,129	38,6	21,8
3,1295	38,0	20,8
3,13	37,7	20,0
3,1305	38,0	19,8
3,131	39,0	20,4
3,1315	40,4	21,4
3,132	41,4	22,5
3,1325	41,6	23,0
3,133	40,7	22,6
3,1335	39,1	21,7
3,134	37,5	20,6
3,1345	36,3	19,8
3,135	35,7	19,0
3,1355	35,5	18,2
3,136	35,6	17,5
3,1365	36,0	17,3
3,137	36,7	17,6
3,1375	37,7	18,0
3,138	39,0	18,6
3,1385	40,8	19,9
3,139	43,2	21,8
3,1395	45,8	23,8
3,14	47,9	25,4
3,1405	49,1	26,4
3,141	49,1	27,0
3,1415	48,3	27,7
3,142	47,5	28,2
3,1425	47,2	28,7
3,143	47,7	29,4
3,1435	48,9	30,7
3,144	50,5	32,4
3,1445	52,5	34,3
3,145	54,9	35,8
3,1455	57,5	36,9
3,146	59,9	37,5
3,1465	61,3	37,4
3,147	61,5	36,3
3,1475	60,6	34,0
3,148	59,1	30,8
3,1485	57,5	27,4
3,149	56,2	24,4
3,1495	55,0	22,2
3,15	54,1	20,8
3,1505	53,5	20,3
3,151	53,4	20,5
3,1515	53,3	20,7
3,152	52,5	19,9
3,1525	50,5	17,9
3,153	47,7	15,3
3,1535	45,0	12,8
3,154	43,0	11,1
3,1545	41,7	10,1
3,155	41,3	9,8
3,1555	41,6	10,2
3,156	42,6	11,2
3,1565	44,4	12,9
3,157	47,1	15,3
3,1575	50,6	18,2
3,158	54,5	21,5
3,1585	58,6	25,2
3,159	62,6	29,0
3,1595	66,3	32,7
3,16	69,6	36,1
3,1605	72,2	39,2
3,161	74,0	41,4
3,1615	75,0	42,7
3,162	75,4	43,2
3,1625	75,5	43,0
3,163	75,4	42,1
3,1635	74,8	39,8
3,164	73,6	35,3
3,1645	71,3	29,0
3,165	68,2	21,7
3,1655	64,8	14,8
3,166	62,0	9,6
3,1665	60,2	6,9
3,167	59,7	6,6
3,1675	59,9	7,8
3,168	60,2	9,3
3,1685	60,1	10,0
3,169	59,6	9,8
3,1695	58,7	9,2
3,17	57,7	8,5
3,1705	56,8	8,2
3,171	56,7	8,5
3,1715	57,7	9,9
3,172	60,2	12,5
3,1725	63,9	16,5
3,173	68,1	21,0
3,1735	71,9	25,0
3,174	74,5	27,4
3,1745	75,7	28,0
3,175	75,6	27,2
3,1755	74,6	25,5
3,176	73,2	23,6
3,1765	71,9	21,9
3,177	71,3	21,2
3,1775	71,7	21,7
3,178	72,9	23,1
3,1785	75,0	25,6
3,179	77,9	29,1
3,1795	81,3	33,0
3,18	84,1	36,4
3,1805	85,6	38,1
3,181	85,2	37,8
3,1815	83,4	35,8
3,182	81,0	33,6
3,1825	78,9	31,8
3,183	77,6	30,6
3,1835	77,3	29,7
3,184	78,1	29,0
3,1845	79,6	28,4
3,185	80,8	27,3
3,1855	81,0	25,4
3,186	80,6	23,0
3,1865	80,1	20,8
3,187	80,1	19,3
3,1875	80,6	18,9
3,188	81,4	19,0
3,1885	82,6	19,5
3,189	84,4	20,7
3,1895	86,8	22,5
3,19	89,4	24,5
3,1905	91,8	25,8
3,191	93,5	26,2
3,1915	94,3	25,8
3,192	94,1	24,8
3,1925	92,7	23,3
3,193	90,4	21,4
3,1935	88,2	20,1
3,194	86,5	19,8
3,1945	85,5	20,5
3,195	85,3	22,0
3,1955	86,1	24,1
3,196	87,7	26,3
3,1965	89,9	28,1
3,197	91,9	29,1
3,1975	93,4	29,1
3,198	94,3	28,3
3,1985	94,9	27,1
3,199	95,3	25,6
3,1995	95,1	23,8
3,2	94,4	21,7
3,2005	93,8	19,8
3,201	93,7	18,6
3,2015	93,6	17,7
3,202	93,2	16,3
3,2025	92,1	14,6
3,203	90,9	13,3
3,2035	89,9	13,3
3,204	89,3	14,3
3,2045	89,0	15,9
3,205	89,2	17,6
3,2055	89,9	19,3
3,206	91,2	20,9
3,2065	92,9	22,3
3,207	94,7	23,5
3,2075	96,2	24,3
3,208	97,3	25,2
3,2085	97,9	26,0
3,209	97,8	26,2
3,2095	97,2	25,5
3,21	96,5	24,5
3,2105	96,4	23,8
3,211	97,6	23,7
3,2115	99,9	24,1
3,212	102,9	24,6
3,2125	105,8	25,3
3,213	108,1	25,9
3,2135	109,6	26,3
3,214	109,8	26,0
3,2145	108,7	24,9
3,215	106,9	23,5
3,2155	105,5	22,5
3,216	104,8	21,9
3,2165	104,3	21,9
3,217	104,0	22,0
3,2175	103,9	21,9
3,218	103,7	21,3
3,2185	103,3	19,7
3,219	102,4	16,9
3,2195	101,5	13,9
3,22	100,8	11,5
3,2205	100,8	10,3
3,221	101,5	10,4
3,2215	102,7	11,5
3,222	104,3	13,2
3,2225	105,9	15,3
3,223	107,7	17,6
3,2235	109,5	19,6
3,224	111,0	21,0
3,2245	112,0	22,0
3,225	112,8	22,8
3,2255	113,2	23,4
3,226	113,4	23,5
3,2265	113,3	23,3
3,227	113,3	22,9
3,2275	113,6	22,7
3,228	114,6	22,9
3,2285	116,2	23,6
3,229	118,2	24,4
3,2295	120,2	25,0
3,23	121,4	24,6
3,2305	121,2	23,2
3,231	119,4	20,8
3,2315	116,6	18,3
3,232	113,7	16,5
3,2325	111,5	16,0
3,233	110,2	16,8
3,2335	109,6	18,3
3,234	109,5	19,9
3,2345	109,7	21,1
3,235	109,9	21,5
3,2355	109,8	21,1
3,236	109,3	20,1
3,2365	108,5	19,0
3,237	107,8	18,2
3,2375	107,6	17,4
3,238	108,0	16,3
3,2385	109,1	15,1
3,239	110,8	13,9
3,2395	112,6	13,0
3,24	114,0	11,9
3,2405	114,6	10,5
3,241	114,7	9,3
3,2415	114,7	8,8
3,242	115,0	9,2
3,2425	115,6	10,0
3,243	116,6	10,8
3,2435	118,1	11,8
3,244	120,5	13,6
3,2445	123,9	16,6
3,245	128,4	21,2
3,2455	133,6	26,8
3,246	138,3	32,1
3,2465	141,4	35,3
3,247	142,0	35,3
3,2475	140,4	32,5
3,248	137,8	28,2
3,2485	135,1	23,7
3,249	133,3	20,1
3,2495	132,3	17,6
3,25	131,9	15,9
3,2505	131,6	14,6
3,251	130,8	13,0
3,2515	129,0	10,2
3,252	126,1	5,7
3,2525	122,6	0,2
3,253	119,3	-5,2
3,2535	116,7	-9,2
3,254	115,0	-11,8
3,2545	114,0	-13,0
3,255	113,8	-12,7
3,2555	114,2	-10,7
3,256	115,2	-7,5
3,2565	116,2	-4,4
3,257	116,6	-2,9
3,2575	116,0	-3,6
3,258	114,7	-5,5
3,2585	113,5	-7,5
3,259	112,7	-8,6
3,2595	112,3	-8,7
3,26	112,5	-7,6
3,2605	113,8	-5,1
3,261	116,1	-1,3
3,2615	118,9	3,1
3,262	121,4	7,0
3,2625	122,9	9,4
3,263	123,3	10,3
3,2635	122,7	9,6
3,264	121,7	7,9
3,2645	120,8	6,0
3,265	120,5	4,4
3,2655	120,7	3,5
3,266	121,4	3,2
3,2665	122,3	2,9
3,267	123,1	2,4
3,2675	123,3	1,5
3,268	122,7	-0,2
3,2685	121,0	-2,8
3,269	118,3	-6,1
3,2695	115,3	-9,4
3,27	112,7	-12,0
3,2705	111,0	-13,5
3,271	110,6	-14,0
3,2715	111,3	-13,8
3,272	113,3	-12,8
3,2725	116,4	-10,8
3,273	119,9	-8,6
3,2735	123,0	-6,7
3,274	125,6	-5,8
3,2745	127,7	-5,8
3,275	129,0	-6,7
3,2755	129,0	-8,5
3,276	127,5	-10,8
3,2765	125,3	-12,8
3,277	123,3	-13,3
3,2775	122,8	-12,0
3,278	123,9	-9,4
3,2785	126,3	-5,7
3,279	129,5	-1,5
3,2795	132,3	2,4
3,28	134,0	5,3
3,2805	134,1	6,3
3,281	132,5	5,4
3,2815	129,7	3,2
3,282	126,6	0,8
3,2825	124,0	-1,1
3,283	122,2	-2,1
3,2835	121,0	-2,8
3,284	119,8	-3,4
3,2845	118,1	-4,7
3,285	115,4	-6,9
3,2855	111,8	-10,3
3,286	108,0	-14,0
3,2865	104,6	-17,2
3,287	102,2	-19,2
3,2875	101,0	-20,1
3,288	101,1	-19,9
3,2885	102,3	-18,7
3,289	104,2	-16,5
3,2895	106,7	-14,0
3,29	109,4	-11,7
3,2905	111,9	-10,1
3,291	113,5	-9,5
3,2915	113,9	-10,0
3,292	112,7	-11,5
3,2925	110,0	-13,8
3,293	107,2	-15,9
3,2935	105,4	-16,8
3,294	105,3	-16,2
3,2945	106,8	-14,5
3,295	109,0	-12,3
3,2955	111,9	-10,0
3,296	114,9	-8,0
3,2965	117,6	-6,7
3,297	119,3	-6,6
3,2975	119,8	-7,7
3,298	119,2	-9,7
3,2985	118,0	-11,8
3,299	116,9	-13,4
3,2995	116,3	-14,1
3,3	116,2	-14,1
3,3005	116,3	-13,9
3,301	116,2	-13,9
3,3015	115,7	-14,7
3,302	114,3	-16,6
3,3025	111,8	-19,4
3,303	108,5	-22,1
3,3035	105,3	-23,8
3,304	102,6	-24,4
3,3045	100,6	-24,5
3,305	99,0	-24,0
3,3055	97,7	-23,1
3,306	96,8	-21,7
3,3065	96,7	-19,9
3,307	97,4	-18,3
3,3075	98,6	-16,9
3,308	100,0	-16,0
3,3085	100,9	-15,5
3,309	101,3	-15,3
3,3095	101,3	-15,3
3,31	101,4	-15,2
3,3105	102,1	-14,6
3,311	103,4	-13,5
3,3115	105,2	-12,2
3,312	107,2	-11,2
3,3125	109,2	-10,5
3,313	111,0	-10,2
3,3135	112,6	-10,3
3,314	113,8	-10,8
3,3145	114,4	-11,5
3,315	115,0	-11,9
3,3155	116,1	-11,5
3,316	117,4	-10,4
3,3165	118,1	-9,7
3,317	117,5	-10,0
3,3175	115,7	-11,7
3,318	113,3	-14,3
3,3185	110,4	-17,6
3,319	107,3	-20,9
3,3195	104,0	-23,8
3,32	100,8	-26,2
3,3205	97,9	-28,3
3,321	95,6	-30,1
3,3215	93,7	-31,8
3,322	92,3	-32,8
3,3225	91,5	-33,2
3,323	90,9	-32,8
3,3235	90,3	-31,9
3,324	89,4	-30,9
3,3245	88,4	-30,0
3,325	87,3	-29,5
3,3255	86,3	-29,7
3,326	85,4	-30,5
3,3265	85,0	-31,5
3,327	85,4	-31,8
3,3275	86,6	-30,9
3,328	88,4	-29,4
3,3285	90,6	-27,6
3,329	92,9	-25,6
3,3295	95,4	-23,8
3,33	98,0	-22,2
3,3305	100,6	-21,4
3,331	103,2	-21,4
3,3315	105,5	-21,5
3,332	107,3	-21,0
3,3325	108,5	-19,8
3,333	108,8	-18,4
3,3335	108,4	-17,5
3,334	107,9	-17,0
3,3345	107,6	-17,0
3,335	107,1	-17,7
3,3355	105,6	-19,3
3,336	102,8	-21,8
3,3365	99,3	-24,8
3,337	96,1	-27,2
3,3375	94,0	-28,6
3,338	93,3	-28,4
3,3385	93,9	-26,8
3,339	95,4	-24,1
3,3395	96,7	-21,4
3,34	97,2	-19,8
3,3405	96,4	-19,9
3,341	94,6	-21,5
3,3415	92,7	-23,5
3,342	91,1	-25,2
3,3425	90,1	-26,3
3,343	89,6	-26,9
3,3435	89,9	-26,7
3,344	91,0	-25,6
3,3445	92,5	-24,1
3,345	94,1	-22,2
3,3455	95,8	-20,0
3,346	97,7	-18,0
3,3465	99,4	-16,4
3,347	100,5	-15,8
3,3475	100,5	-16,2
3,348	99,4	-17,8
3,3485	97,4	-19,9
3,349	94,8	-22,3
3,3495	92,2	-24,4
3,35	90,0	-26,4
3,3505	88,4	-28,0
3,351	87,7	-29,3
3,3515	87,5	-30,2
3,352	87,1	-31,3
3,3525	85,9	-32,9
3,353	83,7	-35,0
3,3535	80,6	-37,2
3,354	76,8	-39,2
3,3545	73,2	-40,7
3,355	70,6	-41,5
3,3555	69,5	-41,2
3,356	69,7	-39,9
3,3565	70,5	-38,1
3,357	71,2	-36,6
3,3575	71,4	-35,9
3,358	71,1	-35,9
3,3585	70,7	-36,4
3,359	70,1	-37,4
3,3595	69,4	-38,2
3,36	69,3	-38,3
3,3605	70,3	-36,9
3,361	72,1	-34,3
3,3615	74,5	-31,2
3,362	76,8	-28,2
3,3625	79,0	-25,9
3,363	81,1	-24,3
3,3635	82,9	-23,8
3,364	84,2	-24,0
3,3645	85,0	-24,8
3,365	85,7	-25,5
3,3655	86,4	-25,8
3,366	87,2	-25,4
3,3665	88,2	-24,9
3,367	89,2	-24,5
3,3675	89,8	-24,6
3,368	89,5	-25,6
3,3685	88,0	-27,9
3,369	85,5	-31,3
3,3695	82,2	-34,7
3,37	78,8	-36,9
3,3705	75,7	-37,7
3,371	73,1	-37,2
3,3715	71,1	-35,8
3,372	70,0	-33,7
3,3725	69,9	-30,9
3,373	70,6	-28,1
3,3735	71,6	-25,9
3,374	72,5	-25,0
3,3745	73,1	-25,3
3,375	73,2	-26,4
3,3755	72,7	-27,9
3,376	71,8	-29,6
3,3765	70,8	-30,8
3,377	70,4	-31,0
3,3775	70,8	-30,3
3,378	71,5	-28,8
3,3785	72,4	-27,3
3,379	73,3	-25,5
3,3795	74,3	-23,8
3,38	75,3	-22,4
3,3805	75,9	-21,8
3,381	76,0	-21,8
3,3815	75,6	-22,5
3,382	75,4	-23,2
3,3825	75,5	-23,5
3,383	76,0	-23,3
3,3835	76,9	-22,7
3,384	78,1	-22,0
3,3845	79,3	-21,6
3,385	79,8	-22,3
3,3855	79,3	-24,5
3,386	77,8	-27,5
3,3865	75,8	-30,1
3,387	74,4	-31,2
3,3875	74,2	-30,4
3,388	75,1	-28,1
3,3885	76,9	-24,9
3,389	79,4	-21,3
3,3895	82,5	-17,9
3,39	85,4	-15,3
3,3905	87,3	-14,3
3,391	87,4	-15,2
3,3915	86,0	-17,4
3,392	83,8	-20,3
3,3925	81,4	-23,2
3,393	79,5	-25,9
3,3935	78,4	-28,2
3,394	78,1	-29,8
3,3945	78,3	-30,6
3,395	78,6	-30,3
3,3955	78,8	-28,8
3,396	78,7	-26,6
3,3965	78,4	-23,9
