Interval=	0,0005 s
ExcelDateTime=	4,5911492025997431e+004	11/09/2025 11:48:31,046178
TimeFormat=	StartOfBlock
DateFormat=	
ChannelTitle=	Biceps	Triceps
Range=	1000,0 µV	1000,0 µV
0	-0,1	0,1
0,0005	-0,4	0,9
0,001	-1,6	3,2
0,0015	-3,4	6,7
0,002	-5,4	10,1
0,0025	-6,6	12,0
0,003	-6,8	12,3
0,0035	-6,5	11,0
0,004	-5,8	8,4
0,0045	-4,2	5,2
0,005	-0,7	2,3
0,0055	4,3	0,2
0,006	9,6	-1,3
0,0065	13,7	-2,7
0,007	15,1	-4,5
0,0075	13,5	-6,7
0,008	9,2	-9,3
0,0085	3,7	-12,1
0,009	-1,5	-14,8
0,0095	-5,4	-17,1
0,01	-7,3	-18,7
0,0105	-6,6	-19,3
0,011	-3,8	-18,7
0,0115	-0,1	-17,1
0,012	3,2	-14,9
0,0125	6,3	-12,2
0,013	9,5	-9,3
0,0135	12,2	-7,3
0,014	14,1	-6,8
0,0145	15,8	-7,7
0,015	18,4	-8,7
0,0155	22,5	-9,3
0,016	27,3	-9,5
0,0165	31,8	-9,8
0,017	35,8	-10,3
0,0175	39,4	-10,7
0,018	42,2	-10,9
0,0185	42,7	-11,3
0,019	39,8	-11,8
0,0195	34,3	-12,3
0,02	27,9	-12,7
0,0205	23,0	-13,0
0,021	20,4	-13,8
0,0215	20,4	-14,8
0,022	23,0	-15,7
0,0225	27,3	-16,0
0,023	31,9	-15,9
0,0235	35,2	-15,9
0,024	36,2	-16,0
0,0245	34,5	-16,3
0,025	30,5	-16,6
0,0255	25,0	-17,0
0,026	18,9	-17,6
0,0265	13,4	-18,1
0,027	9,6	-18,3
0,0275	7,8	-17,9
0,028	7,9	-16,8
0,0285	9,5	-15,3
0,029	11,9	-14,1
0,0295	14,4	-14,1
0,03	15,8	-15,7
0,0305	15,2	-18,2
0,031	12,9	-20,6
0,0315	10,1	-22,2
0,032	7,6	-22,7
0,0325	5,7	-22,5
0,033	4,7	-22,1
0,0335	5,0	-21,8
0,034	6,6	-21,6
0,0345	9,0	-21,6
0,035	11,0	-21,7
0,0355	11,1	-22,1
0,036	8,8	-22,6
0,0365	5,0	-23,0
0,037	0,8	-23,0
0,0375	-3,1	-22,6
0,038	-6,3	-21,7
0,0385	-7,5	-20,2
0,039	-6,3	-18,1
0,0395	-3,5	-16,2
0,04	-0,4	-15,0
0,0405	1,8	-14,5
0,041	2,7	-14,4
0,0415	2,3	-14,3
0,042	0,7	-14,2
0,0425	-1,3	-13,9
0,043	-2,6	-13,5
0,0435	-2,3	-12,8
0,044	-0,2	-12,2
0,0445	3,2	-11,7
0,045	6,9	-11,6
0,0455	10,2	-11,8
0,046	12,5	-12,4
0,0465	13,5	-13,3
0,047	12,7	-14,8
0,0475	10,3	-16,5
0,048	7,7	-18,0
0,0485	6,0	-19,1
0,049	5,5	-19,5
0,0495	5,8	-19,6
0,05	6,8	-19,3
0,0505	8,3	-18,8
0,051	10,1	-17,8
0,0515	11,5	-16,6
0,052	11,2	-15,5
0,0525	8,6	-14,6
0,053	3,9	-14,0
0,0535	-1,9	-13,8
0,054	-8,3	-14,1
0,0545	-14,4	-15,0
0,055	-19,0	-16,0
0,0555	-20,9	-16,4
0,056	-20,6	-16,4
0,0565	-19,5	-16,1
0,057	-18,8	-15,8
0,0575	-18,9	-15,5
0,058	-20,1	-15,3
0,0585	-23,0	-15,1
0,059	-27,6	-15,4
0,0595	-32,9	-16,1
0,06	-37,1	-16,5
0,0605	-38,3	-16,3
0,061	-36,2	-15,4
0,0615	-31,6	-14,0
0,062	-26,0	-12,5
0,0625	-20,4	-11,3
0,063	-16,0	-10,7
0,0635	-14,0	-11,3
0,064	-15,3	-13,2
0,0645	-19,7	-15,9
0,065	-25,9	-18,9
0,0655	-32,4	-21,8
0,066	-38,1	-24,3
0,0665	-42,5	-26,2
0,067	-45,8	-26,8
0,0675	-48,3	-26,2
0,068	-50,6	-24,7
0,0685	-53,3	-23,5
0,069	-57,2	-23,3
0,0695	-62,2	-24,1
0,07	-67,8	-25,6
0,0705	-73,3	-27,0
0,071	-78,1	-27,5
0,0715	-81,5	-26,6
0,072	-82,4	-24,0
0,0725	-80,8	-20,3
0,073	-77,5	-16,3
0,0735	-73,9	-12,8
0,074	-71,1	-10,4
0,0745	-69,4	-9,2
0,075	-69,4	-8,9
0,0755	-71,2	-9,1
0,076	-74,5	-9,1
0,0765	-78,2	-8,6
0,077	-80,4	-7,3
0,0775	-80,1	-5,5
0,078	-77,4	-3,5
0,0785	-73,1	-1,8
0,079	-68,2	-0,6
0,0795	-63,6	0,1
0,08	-60,5	0,1
0,0805	-59,8	-0,6
0,081	-61,4	-1,5
0,0815	-63,7	-2,2
0,082	-65,4	-2,3
0,0825	-66,0	-2,2
0,083	-65,5	-2,1
0,0835	-64,3	-1,8
0,084	-62,8	-1,3
0,0845	-61,7	-0,5
0,085	-62,0	-0,2
0,0855	-64,3	-0,7
0,086	-68,2	-1,8
0,0865	-72,5	-3,2
0,087	-76,6	-4,7
0,0875	-80,4	-6,3
0,088	-84,3	-7,6
0,0885	-87,3	-8,1
0,089	-88,8	-7,5
0,0895	-89,2	-6,1
0,09	-90,2	-4,7
0,0905	-93,3	-3,8
0,091	-99,4	-3,5
0,0915	-108,3	-4,0
0,092	-118,9	-4,9
0,0925	-129,7	-5,9
0,093	-138,7	-6,6
0,0935	-144,5	-6,6
0,094	-146,9	-5,8
0,0945	-146,3	-4,5
0,095	-143,9	-2,8
0,0955	-140,2	-1,1
0,096	-135,4	0,7
0,0965	-130,3	2,1
0,097	-125,8	2,8
0,0975	-122,5	2,9
0,098	-119,7	2,8
0,0985	-116,6	3,1
0,099	-113,4	4,3
0,0995	-110,5	6,7
0,1	-107,7	10,1
0,1005	-105,0	14,4
0,101	-103,1	18,9
0,1015	-102,5	23,0
0,102	-103,9	25,9
0,1025	-106,7	27,3
0,103	-109,4	27,9
0,1035	-111,0	28,2
0,104	-110,7	28,6
0,1045	-108,2	29,2
0,105	-102,6	30,0
0,1055	-93,6	31,0
0,106	-81,9	32,0
0,1065	-69,5	32,8
0,107	-58,7	33,3
0,1075	-50,2	33,6
0,108	-43,5	33,6
0,1085	-38,3	33,3
0,109	-34,1	32,2
0,1095	-31,0	30,8
0,11	-28,8	29,6
0,1105	-26,3	29,0
0,111	-23,4	29,3
0,1115	-20,2	30,4
0,112	-17,1	31,8
0,1125	-14,4	33,3
0,113	-12,1	34,5
0,1135	-10,3	34,8
0,114	-9,4	33,7
0,1145	-9,1	31,5
0,115	-8,5	28,8
0,1155	-6,7	26,2
0,116	-3,0	24,2
0,1165	2,6	23,1
0,117	9,2	22,7
0,1175	15,3	22,5
0,118	19,7	21,9
0,1185	21,2	20,7
0,119	19,9	18,7
0,1195	16,7	16,5
0,12	13,0	14,6
0,1205	9,6	13,1
0,121	6,7	11,9
0,1215	4,7	11,1
0,122	4,0	11,0
0,1225	4,3	11,6
0,123	4,4	12,8
0,1235	3,5	14,0
0,124	1,6	15,1
0,1245	-0,6	16,0
0,125	-2,8	16,5
0,1255	-5,2	16,1
0,126	-8,0	14,7
0,1265	-10,9	12,7
0,127	-13,0	11,2
0,1275	-13,4	10,9
0,128	-12,6	11,8
0,1285	-10,9	13,0
0,129	-9,0	14,1
0,1295	-7,4	14,5
0,13	-7,0	14,2
0,1305	-8,5	13,3
0,131	-11,6	12,0
0,1315	-15,0	10,6
0,132	-17,6	9,2
0,1325	-19,8	7,8
0,133	-22,2	6,8
0,1335	-25,3	6,8
0,134	-29,6	7,9
0,1345	-34,8	9,8
0,135	-40,9	11,5
0,1355	-47,7	12,2
0,136	-54,3	11,5
0,1365	-59,5	9,8
0,137	-63,1	7,7
0,1375	-65,3	5,7
0,138	-66,3	4,1
0,1385	-65,4	3,3
0,139	-62,1	3,3
0,1395	-57,0	3,6
0,14	-51,4	3,7
0,1405	-46,2	3,8
0,141	-41,7	3,9
0,1415	-38,2	4,2
0,142	-36,2	4,1
0,1425	-35,7	3,6
0,143	-35,7	2,7
0,1435	-34,9	2,1
0,144	-32,2	2,0
0,1445	-27,4	2,3
0,145	-21,1	3,0
0,1455	-14,1	3,8
0,146	-7,0	4,8
0,1465	-1,1	6,1
0,147	2,4	7,3
0,1475	3,6	8,0
0,148	3,1	8,2
0,1485	2,3	7,8
0,149	1,6	7,4
0,1495	1,1	7,3
0,15	0,9	7,2
0,1505	1,0	6,8
0,151	1,5	6,2
0,1515	2,5	5,3
0,152	3,3	4,4
0,1525	3,3	3,3
0,153	2,3	2,4
0,1535	0,3	1,9
0,154	-3,1	2,0
0,1545	-7,3	2,9
0,155	-10,9	4,4
0,1555	-12,4	5,9
0,156	-11,4	7,1
0,1565	-9,5	7,8
0,157	-8,4	8,3
0,1575	-8,8	8,9
0,158	-11,3	10,0
0,1585	-16,2	11,0
0,159	-23,3	11,6
0,1595	-31,3	11,6
0,16	-38,1	11,6
0,1605	-41,8	12,0
0,161	-42,0	12,8
0,1615	-39,7	13,5
0,162	-36,1	13,6
0,1625	-32,2	13,2
0,163	-28,7	12,3
0,1635	-26,6	10,7
0,164	-26,5	8,6
0,1645	-27,7	6,6
0,165	-29,0	5,7
0,1655	-29,5	6,2
0,166	-29,3	8,1
0,1665	-28,6	10,8
0,167	-27,6	13,9
0,1675	-26,0	16,7
0,168	-24,3	18,1
0,1685	-23,6	17,6
0,169	-24,8	15,6
0,1695	-27,7	13,6
0,17	-31,5	12,5
0,1705	-35,4	12,2
0,171	-38,5	11,9
0,1715	-40,0	11,0
0,172	-39,0	9,6
0,1725	-35,8	7,9
0,173	-31,5	6,2
0,1735	-27,7	4,3
0,174	-25,2	2,3
0,1745	-24,4	0,2
0,175	-25,9	-1,7
0,1755	-30,1	-3,2
0,176	-36,5	-4,2
0,1765	-43,8	-4,4
0,177	-50,1	-3,7
0,1775	-54,6	-2,2
0,178	-57,3	-0,3
0,1785	-58,9	2,0
0,179	-60,2	4,4
0,1795	-61,6	6,7
0,18	-63,7	8,5
0,1805	-66,8	9,7
0,181	-70,2	10,0
0,1815	-72,8	9,7
0,182	-73,8	9,3
0,1825	-73,3	9,5
0,183	-71,7	11,2
0,1835	-68,2	14,0
0,184	-62,7	17,0
0,1845	-55,2	19,3
0,185	-47,5	20,1
0,1855	-41,3	19,5
0,186	-37,3	18,0
0,1865	-35,2	15,9
0,187	-34,4	13,9
0,1875	-35,7	12,1
0,188	-39,0	10,8
0,1885	-43,1	10,4
0,189	-46,1	11,1
0,1895	-47,5	12,3
0,19	-48,3	13,5
0,1905	-49,6	14,1
0,191	-51,4	13,9
0,1915	-53,4	12,8
0,192	-55,8	10,9
0,1925	-58,1	8,9
0,193	-59,8	7,7
0,1935	-59,7	8,0
0,194	-56,8	9,3
0,1945	-51,6	10,8
0,195	-45,1	12,0
0,1955	-38,3	12,9
0,196	-32,0	13,7
0,1965	-26,5	14,0
0,197	-22,7	13,3
0,1975	-20,9	11,1
0,198	-20,8	8,4
0,1985	-21,3	6,3
0,199	-21,7	5,5
0,1995	-21,5	5,7
0,2	-20,0	6,6
0,2005	-17,1	8,1
0,201	-12,9	9,7
0,2015	-8,6	10,8
0,202	-5,2	10,6
0,2025	-2,8	8,9
0,203	-0,8	6,3
0,2035	1,2	3,4
0,204	2,9	0,8
0,2045	4,0	-1,4
0,205	4,5	-2,7
0,2055	4,3	-2,9
0,206	3,3	-2,4
0,2065	1,1	-1,6
0,207	-2,4	-0,9
0,2075	-7,0	-0,5
0,208	-12,2	-0,5
0,2085	-18,0	-0,8
0,209	-24,3	-1,3
0,2095	-30,6	-1,8
0,21	-36,0	-2,2
0,2105	-39,4	-2,1
0,211	-40,4	-1,6
0,2115	-39,5	-0,7
0,212	-37,1	0,4
0,2125	-33,8	1,6
0,213	-30,3	2,6
0,2135	-27,9	3,0
0,214	-27,3	2,4
0,2145	-27,7	1,2
0,215	-28,1	-0,1
0,2155	-28,0	-1,0
0,216	-27,3	-1,4
0,2165	-26,2	-1,4
0,217	-24,3	-0,6
0,2175	-21,7	0,8
0,218	-18,9	2,3
0,2185	-16,9	3,3
0,219	-16,5	3,4
0,2195	-18,0	2,5
0,22	-21,6	1,1
0,2205	-26,5	-0,2
0,221	-31,9	-1,2
0,2215	-36,1	-1,9
0,222	-37,6	-2,5
0,2225	-36,7	-2,9
0,223	-34,6	-3,5
0,2235	-32,8	-4,3
0,224	-32,0	-5,0
0,2245	-32,2	-5,2
0,225	-33,2	-5,2
0,2255	-35,0	-5,1
0,226	-37,3	-5,0
0,2265	-39,2	-4,6
0,227	-39,4	-3,8
0,2275	-37,2	-2,4
0,228	-32,7	-0,9
0,2285	-26,8	0,5
0,229	-20,7	1,4
0,2295	-15,8	1,6
0,23	-13,3	0,9
0,2305	-13,9	-0,5
0,231	-16,9	-2,0
0,2315	-20,3	-3,1
0,232	-22,2	-3,3
0,2325	-22,2	-3,2
0,233	-20,4	-3,1
0,2335	-16,9	-3,0
0,234	-11,9	-2,7
0,2345	-6,3	-2,3
0,235	-1,5	-1,9
0,2355	0,7	-1,6
0,236	-0,4	-1,4
0,2365	-4,3	-1,4
0,237	-10,0	-1,8
0,2375	-16,3	-2,7
0,238	-21,7	-4,2
0,2385	-25,2	-5,7
0,239	-25,9	-6,7
0,2395	-24,6	-7,2
0,24	-22,5	-7,6
0,2405	-20,9	-8,0
0,241	-20,3	-8,6
0,2415	-20,8	-9,2
0,242	-22,8	-9,9
0,2425	-26,2	-10,7
0,243	-30,2	-11,3
0,2435	-33,1	-11,3
0,244	-33,5	-10,1
0,2445	-31,7	-8,1
0,245	-28,5	-6,2
0,2455	-25,0	-4,8
0,246	-22,2	-4,3
0,2465	-20,6	-4,5
0,247	-20,8	-5,2
0,2475	-22,4	-6,3
0,248	-24,1	-7,2
0,2485	-24,9	-7,5
0,249	-24,2	-7,1
0,2495	-22,4	-6,0
0,25	-19,8	-4,5
0,2505	-16,7	-2,7
0,251	-13,1	-1,0
0,2515	-10,0	0,3
0,252	-8,8	0,7
0,2525	-10,0	0,6
0,253	-13,0	0,2
0,2535	-16,5	0,0
0,254	-19,4	-0,1
0,2545	-21,4	-0,1
0,255	-22,0	0,0
0,2555	-20,4	0,3
0,256	-17,0	0,4
0,2565	-13,1	0,2
0,257	-10,2	-0,5
0,2575	-9,0	-1,5
0,258	-9,9	-2,6
0,2585	-13,4	-3,6
0,259	-19,4	-4,5
0,2595	-27,2	-5,1
0,26	-35,6	-5,3
0,2605	-43,7	-5,0
0,261	-51,1	-4,4
0,2615	-57,7	-3,9
0,262	-62,9	-3,4
0,2625	-66,2	-3,2
0,263	-67,7	-3,3
0,2635	-68,5	-3,8
0,264	-69,7	-4,6
0,2645	-71,2	-5,3
0,265	-72,1	-5,9
0,2655	-71,9	-6,4
0,266	-70,4	-7,1
0,2665	-67,8	-7,9
0,267	-64,1	-8,3
0,2675	-59,3	-7,9
0,268	-54,1	-6,7
0,2685	-49,8	-4,9
0,269	-47,9	-3,2
0,2695	-49,1	-1,8
0,27	-53,1	-0,8
0,2705	-58,8	0,0
0,271	-64,4	0,9
0,2715	-67,4	2,2
0,272	-66,3	4,1
0,2725	-61,2	6,6
0,273	-54,3	9,1
0,2735	-48,1	11,0
0,274	-44,4	12,3
0,2745	-43,2	12,9
0,275	-43,6	12,8
0,2755	-44,5	11,9
0,276	-44,2	10,7
0,2765	-41,4	9,5
0,277	-35,7	9,0
0,2775	-27,7	9,2
0,278	-19,2	9,9
0,2785	-11,8	10,6
0,279	-6,2	11,2
0,2795	-2,6	11,7
0,28	-1,2	11,9
0,2805	-2,5	11,7
0,281	-6,4	10,8
0,2815	-11,9	9,8
0,282	-17,8	9,2
0,2825	-22,9	8,9
0,283	-26,4	8,8
0,2835	-27,7	8,9
0,284	-26,9	9,3
0,2845	-25,1	10,1
0,285	-23,4	10,9
0,2855	-23,1	10,9
0,286	-24,4	10,0
0,2865	-26,7	8,8
0,287	-28,8	7,6
0,2875	-30,0	6,8
0,288	-29,9	6,3
0,2885	-27,7	6,5
0,289	-23,1	7,4
0,2895	-16,2	8,5
0,29	-8,4	9,3
0,2905	-1,3	9,7
0,291	3,9	9,8
0,2915	6,5	9,4
0,292	5,8	8,7
0,2925	2,3	7,4
0,293	-2,6	6,0
0,2935	-6,8	5,1
0,294	-8,9	5,0
0,2945	-8,5	5,9
0,295	-6,7	7,6
0,2955	-4,5	9,5
0,296	-2,8	11,5
0,2965	-1,9	13,2
0,297	-2,7	14,2
0,2975	-5,6	14,1
0,298	-9,8	13,0
0,2985	-13,8	11,0
0,299	-16,3	8,8
0,2995	-16,9	7,1
0,3	-15,9	6,3
0,3005	-14,0	6,7
0,301	-11,7	8,1
0,3015	-9,9	9,9
0,302	-9,7	11,2
0,3025	-11,6	11,5
0,303	-15,6	10,8
0,3035	-20,9	9,3
0,304	-26,9	7,4
0,3045	-32,7	5,0
0,305	-37,2	2,6
0,3055	-39,3	0,9
0,306	-39,1	0,2
0,3065	-37,8	0,5
0,307	-36,9	1,2
0,3075	-37,2	2,0
0,308	-38,9	2,9
0,3085	-42,3	3,9
0,309	-46,8	4,9
0,3095	-51,3	5,7
0,31	-53,8	6,1
0,3105	-53,2	6,5
0,311	-49,3	7,0
0,3115	-43,5	7,4
0,312	-37,4	7,7
0,3125	-32,0	8,1
0,313	-27,9	8,6
0,3135	-26,3	8,8
0,314	-27,5	8,4
0,3145	-30,7	7,8
0,315	-34,1	7,4
0,3155	-36,3	7,9
0,316	-36,9	9,1
0,3165	-36,8	10,6
0,317	-36,6	12,0
0,3175	-37,0	13,0
0,318	-38,4	13,6
0,3185	-41,2	13,6
0,319	-45,3	12,9
0,3195	-50,1	11,6
0,32	-54,8	9,9
0,3205	-59,1	8,0
0,321	-63,0	6,4
0,3215	-65,8	5,4
0,322	-66,8	5,2
0,3225	-65,6	5,6
0,323	-63,1	6,1
0,3235	-60,4	6,1
0,324	-58,3	5,6
0,3245	-56,5	4,9
0,325	-55,3	4,0
0,3255	-55,0	3,1
0,326	-55,8	2,4
0,3265	-57,7	2,5
0,327	-59,3	3,4
0,3275	-60,1	5,0
0,328	-59,4	6,7
0,3285	-57,3	8,0
0,329	-54,1	8,8
0,3295	-50,3	9,3
0,33	-46,8	9,8
0,3305	-45,2	10,3
0,331	-45,7	10,9
0,3315	-47,6	11,6
0,332	-49,8	12,0
0,3325	-51,8	11,9
0,333	-53,1	11,6
0,3335	-53,1	11,3
0,334	-51,7	11,5
0,3345	-49,0	12,4
0,335	-45,8	13,8
0,3355	-43,5	15,1
0,336	-42,7	15,8
0,3365	-42,9	15,8
0,337	-43,2	15,0
0,3375	-43,0	13,5
0,338	-42,2	11,6
0,3385	-40,3	10,1
0,339	-36,9	9,7
0,3395	-32,8	10,5
0,34	-29,2	12,0
0,3405	-27,3	13,5
0,341	-26,8	14,4
0,3415	-27,4	14,6
0,342	-28,5	14,0
0,3425	-29,8	12,9
0,343	-30,8	11,8
0,3435	-30,6	10,8
0,344	-28,5	10,6
0,3445	-24,7	11,1
0,345	-20,3	12,2
0,3455	-16,3	13,8
0,346	-13,2	15,8
0,3465	-11,3	17,8
0,347	-11,7	19,0
0,3475	-14,2	19,1
0,348	-17,4	18,1
0,3485	-19,6	16,6
0,349	-19,9	15,0
0,3495	-18,5	14,0
0,35	-16,0	14,0
0,3505	-12,8	15,1
0,351	-9,3	16,7
0,3515	-6,2	18,2
0,352	-4,9	19,1
0,3525	-5,8	19,3
0,353	-8,3	19,1
0,3535	-10,7	18,9
0,354	-11,8	19,4
0,3545	-11,2	20,2
0,355	-9,7	21,1
0,3555	-8,1	22,1
0,356	-7,9	23,1
0,3565	-10,3	23,9
0,357	-15,8	24,2
0,3575	-23,7	23,5
0,358	-32,8	21,8
0,3585	-41,4	19,2
0,359	-48,2	16,2
0,3595	-52,4	13,2
0,36	-53,4	11,0
0,3605	-51,3	10,2
0,361	-46,2	10,5
0,3615	-39,0	11,7
0,362	-30,2	13,1
0,3625	-20,2	14,4
0,363	-9,8	15,3
0,3635	-0,7	15,3
0,364	5,6	14,2
0,3645	8,9	12,3
0,365	10,1	10,4
0,3655	9,6	9,1
0,366	7,3	8,5
0,3665	3,3	8,7
0,367	-1,3	9,6
0,3675	-5,3	11,3
0,368	-7,9	13,7
0,3685	-9,9	16,2
0,369	-13,1	18,2
0,3695	-18,0	19,5
0,37	-23,9	20,5
0,3705	-30,1	21,1
0,371	-35,8	21,3
0,3715	-40,1	20,8
0,372	-41,7	20,3
0,3725	-39,7	20,1
0,373	-34,3	20,2
0,3735	-26,8	20,3
0,374	-18,7	20,3
0,3745	-10,7	19,9
0,375	-3,9	18,9
0,3755	0,6	17,4
0,376	2,7	15,5
0,3765	3,1	13,8
0,377	3,4	12,9
0,3775	4,8	12,9
0,378	8,1	13,8
0,3785	13,1	15,1
0,379	19,4	16,3
0,3795	26,3	17,1
0,38	32,0	16,8
0,3805	34,8	15,2
0,381	34,5	12,7
0,3815	32,6	10,2
0,382	30,9	8,3
0,3825	30,4	7,0
0,383	31,3	6,1
0,3835	33,7	5,1
0,384	37,3	4,2
0,3845	41,3	3,6
0,385	44,5	3,4
0,3855	45,4	3,3
0,386	44,0	2,8
0,3865	40,7	1,7
0,387	36,6	-0,1
0,3875	32,1	-2,3
0,388	27,7	-4,5
0,3885	24,2	-5,6
0,389	22,1	-4,8
0,3895	20,4	-2,3
0,39	17,8	0,9
0,3905	13,4	3,8
0,391	7,8	6,0
0,3915	1,7	7,7
0,392	-4,9	8,7
0,3925	-11,8	9,1
0,393	-18,7	8,8
0,3935	-23,7	8,2
0,394	-25,4	8,2
0,3945	-23,5	9,0
0,395	-18,9	10,3
0,3955	-13,0	11,9
0,396	-7,0	13,3
0,3965	-2,2	14,4
0,397	-0,1	14,8
0,3975	-0,9	14,3
0,398	-3,6	13,3
0,3985	-6,3	12,3
0,399	-8,2	11,7
0,3995	-9,0	11,8
0,4	-8,8	12,5
0,4005	-7,5	13,8
0,401	-4,9	15,7
0,4015	-1,7	17,5
0,402	0,9	18,4
0,4025	1,7	18,0
0,403	1,0	16,3
0,4035	-0,2	14,1
0,404	-1,5	12,3
0,4045	-3,2	11,2
0,405	-4,6	10,8
0,4055	-4,8	10,8
0,406	-3,6	11,0
0,4065	-1,7	11,0
0,407	-0,1	10,9
0,4075	0,9	10,8
0,408	1,2	10,8
0,4085	0,5	10,7
0,409	-1,4	10,1
0,4095	-4,1	9,0
0,41	-6,8	8,3
0,4105	-8,6	8,5
0,411	-9,1	10,0
0,4115	-8,6	11,9
0,412	-7,5	13,6
0,4125	-5,8	14,7
0,413	-3,9	15,3
0,4135	-2,8	15,3
0,414	-3,1	14,2
0,4145	-4,2	12,3
0,415	-5,1	10,4
0,4155	-5,0	8,9
0,416	-3,9	8,0
0,4165	-2,0	7,4
0,417	0,9	7,0
0,4175	4,6	6,8
0,418	8,4	6,7
0,4185	11,2	6,4
0,419	11,3	5,6
0,4195	8,7	4,6
0,42	3,7	3,8
0,4205	-2,6	3,0
0,421	-9,5	1,8
0,4215	-16,1	-0,1
0,422	-20,9	-2,0
0,4225	-23,2	-3,3
0,423	-23,8	-3,8
0,4235	-24,0	-4,3
0,424	-24,7	-5,1
0,4245	-25,8	-6,1
0,425	-27,2	-6,8
0,4255	-28,9	-7,1
0,426	-31,4	-6,7
0,4265	-33,7	-5,8
0,427	-34,5	-4,8
0,4275	-32,8	-3,6
0,428	-29,6	-2,5
0,4285	-26,0	-1,3
0,429	-23,2	0,0
0,4295	-21,1	1,7
0,43	-20,1	3,4
0,4305	-20,8	4,7
0,431	-23,0	5,3
0,4315	-25,3	4,9
0,432	-26,4	4,0
0,4325	-25,9	2,5
0,433	-24,1	0,8
0,4335	-21,0	-0,3
0,434	-16,4	-0,4
0,4345	-10,7	0,6
0,435	-5,6	2,2
0,4355	-3,3	3,4
0,436	-4,6	3,7
0,4365	-8,8	3,0
0,437	-14,6	1,6
0,4375	-20,8	-0,1
0,438	-27,1	-1,8
0,4385	-32,3	-3,0
0,439	-35,3	-3,1
0,4395	-36,2	-2,3
0,44	-35,4	-1,5
0,4405	-33,9	-1,1
0,441	-32,3	-1,0
0,4415	-31,7	-1,0
0,442	-33,3	-1,1
0,4425	-36,8	-1,3
0,443	-40,8	-1,8
0,4435	-43,2	-2,2
0,444	-42,5	-2,1
0,4445	-38,9	-1,5
0,445	-33,3	-0,5
0,4455	-27,2	0,8
0,446	-20,9	2,3
0,4465	-15,0	3,4
0,447	-10,6	3,8
0,4475	-8,5	3,3
0,448	-8,5	2,6
0,4485	-9,4	1,9
0,449	-10,5	1,6
0,4495	-11,4	1,6
0,45	-11,7	2,3
0,4505	-10,9	3,7
0,451	-9,2	5,9
0,4515	-7,0	8,1
0,452	-5,8	9,5
0,4525	-7,1	9,9
0,453	-12,3	9,3
0,4535	-21,1	8,1
0,454	-31,8	6,4
0,4545	-42,0	4,3
0,455	-49,4	2,5
0,4555	-52,2	1,5
0,456	-50,3	1,7
0,4565	-44,9	2,4
0,457	-37,6	3,2
0,4575	-29,5	3,7
0,458	-20,8	4,1
0,4585	-11,9	4,4
0,459	-3,4	4,7
0,4595	4,1	4,7
0,46	10,5	4,5
0,4605	16,0	4,8
0,461	21,0	5,5
0,4615	25,3	6,7
0,462	28,8	7,5
0,4625	31,7	7,8
0,463	33,7	7,4
0,4635	34,2	6,1
0,464	32,8	3,9
0,4645	30,1	1,5
0,465	27,3	-0,3
0,4655	25,3	-0,8
0,466	23,7	-0,2
0,4665	22,0	1,4
0,467	19,9	3,9
0,4675	17,8	7,1
0,468	15,8	10,3
0,4685	14,0	12,3
0,469	12,1	12,4
0,4695	9,9	11,1
0,47	7,6	9,4
0,4705	5,5	7,9
0,471	3,8	6,7
0,4715	2,7	5,7
0,472	2,8	5,1
0,4725	4,1	5,0
0,473	6,2	5,3
0,4735	8,0	5,7
0,474	8,9	5,8
0,4745	9,0	5,6
0,475	7,8	4,7
0,4755	5,0	3,2
0,476	0,7	1,3
0,4765	-4,5	-0,4
0,477	-9,1	-1,3
0,4775	-11,9	-1,1
0,478	-12,9	-0,1
0,4785	-12,4	1,2
0,479	-11,2	2,5
0,4795	-10,0	3,7
0,48	-9,6	4,5
0,4805	-10,6	4,6
0,481	-12,8	3,9
0,4815	-15,2	2,6
0,482	-16,5	0,9
0,4825	-16,3	-0,8
0,483	-14,9	-1,9
0,4835	-12,4	-2,1
0,484	-8,6	-1,5
0,4845	-3,3	-0,4
0,485	2,3	0,4
0,4855	6,6	0,4
0,486	8,8	-0,4
0,4865	9,1	-2,1
0,487	8,1	-4,2
0,4875	5,9	-6,5
0,488	2,6	-8,7
0,4885	-0,8	-10,0
0,489	-2,8	-10,1
0,4895	-2,9	-8,9
0,49	-2,1	-7,3
0,4905	-1,9	-5,9
0,491	-3,2	-5,3
0,4915	-5,9	-5,4
0,492	-10,0	-6,0
0,4925	-15,2	-6,7
0,493	-20,8	-7,3
0,4935	-25,6	-7,4
0,494	-29,0	-7,0
0,4945	-30,7	-6,2
0,495	-31,3	-5,0
0,4955	-31,5	-3,2
0,496	-31,7	-0,9
0,4965	-32,9	1,1
0,497	-36,0	2,1
0,4975	-41,6	1,6
0,498	-48,0	0,2
0,4985	-53,1	-1,2
0,499	-55,3	-1,9
0,4995	-54,3	-2,1
0,5	-50,8	-1,8
0,5005	-45,4	-1,0
0,501	-38,3	0,1
0,5015	-30,6	1,2
0,502	-23,4	1,6
0,5025	-17,9	0,9
0,503	-14,2	-0,6
0,5035	-12,1	-2,5
0,504	-11,6	-4,5
0,5045	-13,0	-6,1
0,505	-15,8	-7,0
0,5055	-18,1	-7,1
0,506	-18,6	-6,5
0,5065	-17,5	-5,5
0,507	-16,2	-4,2
0,5075	-15,9	-2,6
0,508	-16,9	-1,0
0,5085	-19,2	0,2
0,509	-23,0	0,9
0,5095	-28,1	1,3
0,51	-33,4	1,6
0,5105	-37,2	2,4
0,511	-38,3	3,7
0,5115	-36,5	5,2
0,512	-32,2	6,3
0,5125	-26,8	7,1
0,513	-21,8	7,6
0,5135	-18,6	7,6
0,514	-18,1	6,9
0,5145	-19,7	5,8
0,515	-21,6	4,7
0,5155	-22,5	3,9
0,516	-21,9	3,4
0,5165	-20,1	3,2
0,517	-17,7	3,3
0,5175	-15,1	4,0
0,518	-12,5	5,1
0,5185	-10,5	6,3
0,519	-9,8	7,3
0,5195	-11,1	7,8
0,52	-13,6	8,2
0,5205	-16,8	8,6
0,521	-20,3	9,1
0,5215	-23,7	9,2
0,522	-26,1	9,0
0,5225	-26,8	8,9
0,523	-25,8	8,9
0,5235	-24,3	9,4
0,524	-23,1	10,3
0,5245	-22,7	11,3
0,525	-23,5	11,5
0,5255	-25,8	10,4
0,526	-29,3	8,3
0,5265	-32,9	6,1
0,527	-35,3	5,0
0,5275	-35,9	5,5
0,528	-35,2	7,1
0,5285	-34,1	8,9
0,529	-33,6	10,0
0,5295	-34,0	10,2
0,53	-35,6	9,5
0,5305	-39,1	7,7
0,531	-44,8	5,0
0,5315	-51,3	2,0
0,532	-56,8	-0,3
0,5325	-59,9	-1,5
0,533	-60,1	-1,5
0,5335	-57,3	-0,6
0,534	-51,6	0,9
0,5345	-43,6	2,8
0,535	-34,5	4,9
0,5355	-25,8	6,4
0,536	-18,3	7,0
0,5365	-12,6	6,6
0,537	-8,7	5,6
0,5375	-6,7	4,2
0,538	-6,2	2,7
0,5385	-6,1	1,4
0,539	-5,2	0,9
0,5395	-3,2	1,3
0,54	-0,3	1,8
0,5405	2,6	2,3
0,541	5,1	2,9
0,5415	6,6	3,9
0,542	6,4	5,1
0,5425	4,2	5,8
0,543	0,8	5,9
0,5435	-2,2	5,7
0,544	-3,6	6,0
0,5445	-3,5	7,2
0,545	-2,4	9,3
0,5455	-0,9	11,6
0,546	1,1	13,5
0,5465	2,8	14,7
0,547	3,2	14,8
0,5475	1,0	14,0
0,548	-3,2	13,0
0,5485	-7,8	12,4
0,549	-11,0	12,3
0,5495	-12,1	12,2
0,55	-11,4	11,9
0,5505	-9,7	11,3
0,551	-7,2	10,8
0,5515	-4,7	10,3
0,552	-3,0	9,6
0,5525	-2,7	8,5
0,553	-3,6	7,0
0,5535	-5,6	5,4
0,554	-8,8	4,0
0,5545	-13,3	2,9
0,555	-18,3	2,1
0,5555	-22,3	2,0
0,556	-24,0	2,6
0,5565	-23,4	3,5
0,557	-21,7	4,7
0,5575	-20,5	6,1
0,558	-21,0	7,8
0,5585	-23,5	9,2
0,559	-27,4	9,3
0,5595	-31,5	7,8
0,56	-33,9	5,2
0,5605	-33,5	2,9
0,561	-30,0	2,1
0,5615	-24,5	2,8
0,562	-18,5	4,5
0,5625	-12,8	6,4
0,563	-7,9	8,0
0,5635	-4,8	8,8
0,564	-4,0	8,4
0,5645	-5,2	7,1
0,565	-6,8	5,3
0,5655	-7,1	3,8
0,566	-5,9	2,8
0,5665	-3,6	2,1
0,567	-0,5	2,0
0,5675	3,1	2,5
0,568	7,1	3,1
0,5685	10,7	3,4
0,569	12,7	2,8
0,5695	12,9	1,2
0,57	11,5	-0,8
0,5705	9,3	-2,7
0,571	6,5	-4,4
0,5715	3,5	-5,3
0,572	0,9	-5,0
0,5725	-0,7	-3,2
0,573	-1,7	-0,7
0,5735	-3,3	1,6
0,574	-6,1	3,2
0,5745	-9,3	4,2
0,575	-12,6	4,7
0,5755	-16,0	4,7
0,576	-20,0	4,1
0,5765	-24,7	3,0
0,577	-28,9	2,2
0,5775	-31,3	2,2
0,578	-31,5	3,3
0,5785	-30,3	5,2
0,579	-28,2	7,3
0,5795	-26,0	8,9
0,58	-24,4	9,6
0,5805	-24,6	9,1
0,581	-26,3	7,8
0,5815	-28,2	6,3
0,582	-29,0	5,1
0,5825	-28,1	4,4
0,583	-26,1	4,1
0,5835	-23,1	4,0
0,584	-18,9	4,2
0,5845	-13,8	4,8
0,585	-9,0	5,8
0,5855	-5,8	6,6
0,586	-4,9	7,0
0,5865	-5,9	6,9
0,587	-7,8	6,5
0,5875	-9,8	6,1
0,588	-11,3	5,5
0,5885	-11,5	5,2
0,589	-9,6	5,2
0,5895	-6,0	5,8
0,59	-2,2	6,6
0,5905	0,3	7,5
0,591	0,9	8,2
0,5915	-0,2	8,9
0,592	-2,8	9,3
0,5925	-7,2	9,3
0,593	-12,8	8,8
0,5935	-18,2	7,9
0,594	-22,1	7,4
0,5945	-23,8	7,6
0,595	-23,8	8,4
0,5955	-23,1	9,3
0,596	-22,1	9,9
0,5965	-21,7	10,0
0,597	-23,1	9,2
0,5975	-27,3	7,3
0,598	-33,5	4,8
0,5985	-40,5	2,5
0,599	-47,0	1,2
0,5995	-52,5	0,6
0,6	-56,6	0,6
0,6005	-58,4	0,8
0,601	-57,4	1,1
0,6015	-54,1	1,4
0,602	-49,8	1,2
0,6025	-45,8	0,5
0,603	-42,6	-0,5
0,6035	-39,7	-1,4
0,604	-36,8	-2,2
0,6045	-34,3	-3,2
0,605	-31,9	-4,5
0,6055	-28,7	-5,5
0,606	-23,9	-5,9
0,6065	-18,5	-5,9
0,607	-13,8	-5,9
0,6075	-11,2	-5,9
0,608	-10,6	-5,8
0,6085	-11,2	-5,5
0,609	-12,3	-4,9
0,6095	-13,4	-4,5
0,61	-14,2	-4,4
0,6105	-14,0	-4,4
0,611	-12,5	-4,0
0,6115	-9,6	-2,3
0,612	-5,4	0,6
0,6125	-0,3	4,1
0,613	5,6	7,1
0,6135	10,7	8,6
0,614	13,2	8,4
0,6145	12,3	7,6
0,615	9,0	7,0
0,6155	5,3	6,9
0,616	2,1	6,9
0,6165	-0,2	6,6
0,617	-1,1	6,0
0,6175	-0,3	5,8
0,618	1,8	6,1
0,6185	4,3	6,4
0,619	5,8	5,9
0,6195	5,9	4,6
0,62	5,2	2,6
0,6205	3,8	0,6
0,621	1,7	-1,4
0,6215	-0,9	-2,9
0,622	-3,4	-3,3
0,6225	-5,0	-2,4
0,623	-5,5	-1,0
0,6235	-5,5	0,2
0,624	-5,7	0,5
0,6245	-6,1	-0,1
0,625	-7,0	-1,3
0,6255	-8,8	-3,3
0,626	-11,2	-5,4
0,6265	-14,0	-7,5
0,627	-16,1	-8,8
0,6275	-16,5	-9,0
0,628	-15,1	-8,3
0,6285	-12,3	-7,3
0,629	-9,0	-6,1
0,6295	-6,3	-4,7
0,63	-5,4	-3,4
0,6305	-7,5	-3,0
0,631	-12,4	-3,4
0,6315	-18,6	-4,2
0,632	-24,2	-4,7
0,6325	-28,4	-5,0
0,633	-31,2	-5,2
0,6335	-32,4	-5,4
0,634	-32,1	-5,4
0,6345	-30,5	-5,0
0,635	-28,7	-4,2
0,6355	-27,6	-3,3
0,636	-27,4	-2,5
0,6365	-27,9	-1,5
0,637	-28,9	-0,3
0,6375	-30,4	1,0
0,638	-31,8	2,4
0,6385	-31,9	4,0
0,639	-29,6	6,0
0,6395	-25,3	8,3
0,64	-20,7	10,0
0,6405	-17,2	10,4
0,641	-15,3	9,5
0,6415	-14,9	7,8
0,642	-16,0	5,5
0,6425	-18,8	2,6
0,643	-22,4	-0,8
0,6435	-25,4	-3,9
0,644	-26,1	-6,0
0,6445	-24,2	-6,6
0,645	-20,3	-5,9
0,6455	-15,3	-4,8
0,646	-10,5	-3,6
0,6465	-6,8	-2,5
0,647	-5,7	-1,9
0,6475	-7,9	-1,9
0,648	-12,5	-2,5
0,6485	-17,3	-3,1
0,649	-20,3	-3,3
0,6495	-21,1	-3,4
0,65	-19,8	-3,4
0,6505	-17,3	-3,3
0,651	-14,0	-2,6
0,6515	-10,8	-1,5
0,652	-8,8	-0,8
0,6525	-8,1	-1,1
0,653	-8,7	-2,6
0,6535	-10,3	-4,6
0,654	-12,7	-6,7
0,6545	-15,7	-8,5
0,655	-18,5	-9,6
0,6555	-19,8	-9,6
0,656	-19,1	-8,7
0,6565	-16,9	-7,3
0,657	-14,7	-5,7
0,6575	-13,3	-4,5
0,658	-12,9	-3,7
0,6585	-13,5	-3,5
0,659	-15,3	-3,7
0,6595	-17,9	-3,9
0,66	-21,0	-3,8
0,6605	-23,3	-2,8
0,661	-24,6	-0,8
0,6615	-24,8	1,5
0,662	-24,3	3,8
0,6625	-23,2	6,0
0,663	-21,6	8,1
0,6635	-20,2	9,9
0,664	-20,2	10,7
0,6645	-22,0	10,6
0,665	-25,1	10,0
0,6655	-28,3	9,5
0,666	-31,1	9,5
0,6665	-33,5	9,6
0,667	-35,5	9,6
0,6675	-36,9	9,4
0,668	-37,3	9,2
0,6685	-36,4	8,7
0,669	-34,7	7,7
0,6695	-32,9	6,2
0,67	-31,4	4,3
0,6705	-30,4	2,6
0,671	-30,0	1,0
0,6715	-30,1	0,2
0,672	-30,5	0,4
0,6725	-30,7	1,8
0,673	-30,9	3,9
0,6735	-31,5	6,2
0,674	-32,3	7,9
0,6745	-32,5	8,8
0,675	-31,8	8,6
0,6755	-30,8	7,2
0,676	-30,1	5,0
0,6765	-29,6	2,6
0,677	-28,5	0,7
0,6775	-26,4	-0,6
0,678	-23,7	-1,2
0,6785	-20,8	-1,0
0,679	-17,8	-0,3
0,6795	-14,5	0,8
0,68	-11,3	1,7
0,6805	-8,9	2,1
0,681	-8,2	2,0
0,6815	-8,8	2,2
0,682	-9,9	2,9
0,6825	-10,5	4,2
0,683	-10,6	5,2
0,6835	-10,3	5,9
0,684	-9,2	6,6
0,6845	-7,0	8,0
0,685	-3,9	10,2
0,6855	-1,0	12,6
0,686	0,5	14,3
0,6865	0,1	14,9
0,687	-1,9	14,4
0,6875	-5,2	12,9
0,688	-9,0	10,8
0,6885	-11,7	8,7
0,689	-12,1	7,3
0,6895	-10,2	6,9
0,69	-7,8	7,2
0,6905	-6,4	7,9
0,691	-6,8	8,8
0,6915	-8,7	9,8
0,692	-12,1	10,4
0,6925	-16,9	10,2
0,693	-22,6	9,0
0,6935	-27,6	7,5
0,694	-30,3	6,3
0,6945	-29,8	5,7
0,695	-26,8	5,6
0,6955	-22,2	5,8
0,696	-16,9	6,3
0,6965	-11,7	6,9
0,697	-7,9	7,2
0,6975	-6,8	6,7
0,698	-8,1	5,7
0,6985	-10,7	4,7
0,699	-13,6	3,9
0,6995	-16,0	3,3
0,7	-17,3	2,6
0,7005	-17,1	2,1
0,701	-15,7	2,1
0,7015	-13,7	2,4
0,702	-11,9	2,4
0,7025	-11,0	1,6
0,703	-10,9	-0,0
0,7035	-11,3	-1,8
0,704	-11,5	-3,3
0,7045	-11,8	-4,4
0,705	-11,9	-5,2
0,7055	-10,8	-5,3
0,706	-8,5	-4,8
0,7065	-5,2	-4,0
0,707	-2,2	-3,4
0,7075	-0,3	-3,0
0,708	0,3	-2,7
0,7085	-0,5	-2,9
0,709	-2,6	-3,7
0,7095	-5,8	-5,0
0,71	-9,7	-6,3
0,7105	-12,8	-6,8
0,711	-14,2	-6,3
0,7115	-14,0	-4,6
0,712	-13,2	-2,2
0,7125	-13,0	0,8
0,713	-14,1	3,8
0,7135	-16,8	6,2
0,714	-21,4	7,3
0,7145	-26,8	6,8
0,715	-31,3	5,4
0,7155	-33,6	3,8
0,716	-33,7	2,3
0,7165	-32,3	1,4
0,717	-29,8	1,2
0,7175	-26,2	1,7
0,718	-21,7	2,7
0,7185	-17,3	3,7
0,719	-14,2	4,1
0,7195	-12,7	3,7
0,72	-13,3	2,3
0,7205	-16,0	0,4
0,721	-20,5	-1,5
0,7215	-25,8	-2,8
0,722	-30,2	-3,1
0,7225	-32,8	-2,2
0,723	-33,4	-0,6
0,7235	-33,2	1,0
0,724	-32,9	1,9
0,7245	-33,2	2,0
0,725	-34,9	1,7
0,7255	-39,0	0,8
0,726	-45,0	-0,6
0,7265	-51,3	-2,1
0,727	-55,4	-3,3
0,7275	-55,8	-3,6
0,728	-52,6	-2,8
0,7285	-46,8	-0,9
0,729	-39,8	1,8
0,7295	-32,6	5,1
0,73	-26,2	8,0
0,7305	-22,0	9,5
0,731	-20,7	9,2
0,7315	-21,1	7,7
0,732	-21,2	5,7
0,7325	-20,0	4,0
0,733	-17,5	2,9
0,7335	-14,1	2,6
0,734	-10,1	3,2
0,7345	-5,7	4,4
0,735	-1,6	5,8
0,7355	0,8	6,7
0,736	1,1	6,8
0,7365	0,1	6,2
0,737	-1,1	5,0
0,7375	-2,0	3,8
0,738	-3,1	2,8
0,7385	-4,8	2,4
0,739	-6,4	2,9
0,7395	-7,3	4,1
0,74	-7,5	5,6
0,7405	-7,4	6,9
0,741	-7,8	7,9
0,7415	-9,0	8,5
0,742	-11,3	8,3
0,7425	-14,4	7,0
0,743	-17,8	5,0
0,7435	-20,2	3,2
0,744	-20,6	2,5
0,7445	-18,9	3,1
0,745	-15,8	4,5
0,7455	-11,7	6,5
0,746	-7,2	8,7
0,7465	-3,1	10,5
0,747	-1,1	11,3
0,7475	-2,5	10,7
0,748	-6,6	8,8
0,7485	-11,3	6,7
0,749	-14,9	5,1
0,7495	-16,8	4,3
0,75	-17,1	4,0
0,7505	-16,2	3,9
0,751	-14,3	3,9
0,7515	-11,8	4,1
0,752	-9,7	4,7
0,7525	-9,0	5,3
0,753	-10,4	5,9
0,7535	-14,0	6,3
0,754	-19,0	6,5
0,7545	-24,8	6,4
0,755	-30,1	5,9
0,7555	-33,8	5,3
0,756	-35,0	5,0
0,7565	-34,1	5,3
0,757	-32,4	6,4
0,7575	-31,4	7,7
0,758	-31,4	8,9
0,7585	-32,6	9,3
0,759	-35,0	9,0
0,7595	-38,1	8,6
0,76	-41,2	8,4
0,7605	-43,0	8,9
0,761	-42,8	9,7
0,7615	-40,8	10,3
0,762	-37,7	10,2
0,7625	-34,3	9,7
0,763	-30,8	9,2
0,7635	-27,7	8,8
0,764	-25,7	8,1
0,7645	-24,7	6,6
0,765	-24,1	4,5
0,7655	-23,1	2,2
0,766	-21,5	0,1
0,7665	-19,3	-1,3
0,767	-16,4	-1,6
0,7675	-12,7	-1,1
0,768	-8,1	-0,1
0,7685	-3,8	1,0
0,769	-1,3	1,7
0,7695	-1,7	1,8
0,77	-4,7	1,5
0,7705	-9,6	1,1
0,771	-15,6	0,2
0,7715	-21,5	-1,0
0,772	-26,4	-2,0
0,7725	-29,6	-1,9
0,773	-31,6	-0,4
0,7735	-33,5	1,9
0,774	-36,1	4,5
0,7745	-39,2	6,9
0,775	-42,7	8,7
0,7755	-47,2	9,4
0,776	-52,5	9,1
0,7765	-57,7	8,2
0,777	-60,5	7,6
0,7775	-59,2	7,3
0,778	-53,5	7,1
0,7785	-45,0	7,0
0,779	-35,8	7,0
0,7795	-27,2	7,6
0,78	-19,9	8,7
0,7805	-14,8	9,6
0,781	-12,6	9,4
0,7815	-12,5	8,3
0,782	-13,3	6,8
0,7825	-13,7	5,7
0,783	-13,6	5,6
0,7835	-12,5	6,7
0,784	-10,4	9,0
0,7845	-7,3	11,8
0,785	-3,8	14,2
0,7855	-1,1	15,4
0,786	-0,5	15,3
0,7865	-2,1	14,4
0,787	-4,9	13,3
0,7875	-8,1	12,5
0,788	-10,8	12,1
0,7885	-12,0	11,9
0,789	-10,8	12,2
0,7895	-6,8	12,6
0,79	-0,8	13,2
0,7905	5,7	13,5
0,791	11,3	13,3
0,7915	15,3	13,0
0,792	16,8	12,3
0,7925	15,4	11,3
0,793	11,4	10,1
0,7935	6,3	9,2
0,794	1,8	9,3
0,7945	-1,2	10,5
0,795	-2,5	12,4
0,7955	-2,8	14,4
0,796	-2,3	16,0
0,7965	-1,6	17,2
0,797	-1,7	17,4
0,7975	-3,3	16,5
0,798	-6,2	14,8
0,7985	-9,1	13,0
0,799	-10,7	11,9
0,7995	-10,9	11,8
0,8	-9,9	12,4
0,8005	-7,9	13,2
0,801	-5,4	13,7
0,8015	-3,1	13,3
0,802	-2,7	12,2
0,8025	-5,3	10,0
0,803	-10,1	7,3
0,8035	-15,8	4,4
0,804	-20,8	2,1
0,8045	-25,0	0,4
0,805	-28,8	-0,5
0,8055	-31,9	-0,8
0,806	-34,3	-0,5
0,8065	-36,2	-0,1
0,807	-38,0	0,1
0,8075	-39,7	-0,2
0,808	-40,4	-1,0
0,8085	-39,6	-2,1
0,809	-37,4	-3,2
0,8095	-33,9	-4,1
0,81	-29,4	-4,1
0,8105	-23,5	-3,1
0,811	-16,5	-1,1
0,8115	-8,9	1,3
0,812	-1,8	3,8
0,8125	4,3	5,8
0,813	8,5	7,3
0,8135	10,2	7,9
0,814	8,8	7,4
0,8145	4,9	6,0
0,815	0,3	4,6
0,8155	-3,1	4,3
0,816	-4,7	5,4
0,8165	-4,9	7,3
0,817	-4,1	9,4
0,8175	-2,6	11,4
0,818	-0,6	13,0
0,8185	0,9	14,3
0,819	1,2	15,0
0,8195	-0,3	15,3
0,82	-3,2	15,1
0,8205	-6,3	14,8
0,821	-8,7	14,0
0,8215	-9,7	12,8
0,822	-8,9	11,5
0,8225	-6,7	10,6
0,823	-4,1	10,3
0,8235	-2,5	10,4
0,824	-2,8	10,7
0,8245	-4,5	11,0
0,825	-7,3	11,0
0,8255	-11,5	10,3
0,826	-17,1	8,9
0,8265	-23,5	7,3
0,827	-29,1	5,9
0,8275	-31,9	5,7
0,828	-30,9	6,6
0,8285	-26,3	8,2
0,829	-19,8	10,3
0,8295	-12,9	12,7
0,83	-8,0	15,0
0,8305	-7,2	16,7
0,831	-11,2	17,4
0,8315	-18,1	17,6
0,832	-25,0	17,8
0,8325	-29,5	18,2
0,833	-31,3	18,4
0,8335	-30,8	18,4
0,834	-28,7	18,1
0,8345	-25,7	17,9
0,835	-22,3	17,8
0,8355	-19,1	17,1
0,836	-16,8	15,8
0,8365	-15,4	13,9
0,837	-15,3	12,0
0,8375	-16,8	10,8
0,838	-19,8	10,5
0,8385	-23,1	11,0
0,839	-24,6	12,1
0,8395	-23,4	13,3
0,84	-20,7	13,8
0,8405	-18,1	13,2
0,841	-16,7	11,6
0,8415	-16,6	9,5
0,842	-18,1	7,5
0,8425	-21,4	6,1
0,843	-26,2	5,5
0,8435	-30,8	6,2
0,844	-33,6	8,0
0,8445	-33,5	10,3
0,845	-30,8	12,3
0,8455	-27,0	13,3
0,846	-23,3	13,4
0,8465	-20,1	13,4
0,847	-18,0	13,3
0,8475	-17,4	13,1
0,848	-18,2	13,0
0,8485	-19,3	13,0
0,849	-19,5	13,2
0,8495	-17,8	13,7
0,85	-13,9	14,4
0,8505	-8,0	15,3
0,851	-0,5	16,5
0,8515	7,8	17,6
0,852	15,0	17,7
0,8525	19,4	16,4
0,853	19,8	14,0
0,8535	16,5	11,2
0,854	10,6	8,5
0,8545	3,4	6,6
0,855	-3,8	5,7
0,8555	-9,4	6,0
0,856	-12,4	6,9
0,8565	-13,1	7,8
0,857	-12,6	7,9
0,8575	-12,1	7,1
0,858	-12,1	6,1
0,8585	-12,9	5,3
0,859	-15,3	4,8
0,8595	-18,8	4,3
0,86	-22,7	3,5
0,8605	-25,3	3,0
0,861	-25,3	3,3
0,8615	-22,5	4,5
0,862	-17,4	6,7
0,8625	-10,6	9,3
0,863	-3,2	11,6
0,8635	3,3	12,8
0,864	7,4	12,5
0,8645	9,0	11,3
0,865	9,2	9,8
0,8655	9,2	8,9
0,866	9,7	8,6
0,8665	10,7	8,6
0,867	12,6	8,7
0,8675	15,4	8,6
0,868	19,0	8,4
0,8685	22,4	7,8
0,869	24,5	6,8
0,8695	24,6	5,4
0,87	22,8	4,1
0,8705	20,0	3,3
0,871	16,5	3,2
0,8715	12,4	3,6
0,872	8,7	4,3
0,8725	6,3	5,0
0,873	5,4	5,3
0,8735	5,3	5,0
0,874	4,6	4,1
0,8745	3,2	3,3
0,875	1,0	3,0
0,8755	-2,0	3,1
0,876	-5,9	3,0
0,8765	-10,4	2,3
0,877	-14,5	1,3
0,8775	-16,7	0,4
0,878	-16,5	0,0
0,8785	-14,3	0,3
0,879	-11,0	0,7
0,8795	-7,2	0,9
0,88	-3,6	0,8
0,8805	-1,4	-0,1
0,881	-1,3	-1,7
0,8815	-2,6	-3,6
0,882	-4,4	-5,1
0,8825	-5,5	-5,5
0,883	-5,8	-4,6
0,8835	-4,8	-2,8
0,884	-2,4	-0,8
0,8845	1,3	0,9
0,885	5,7	1,9
0,8855	9,4	1,9
0,886	10,9	1,3
0,8865	9,9	0,4
0,887	7,1	-0,2
0,8875	3,8	-0,8
0,888	0,7	-1,7
0,8885	-1,2	-2,7
0,889	-1,3	-3,0
0,8895	0,5	-2,3
0,89	3,2	-0,9
0,8905	5,5	0,7
0,891	6,5	1,7
0,8915	6,2	2,0
0,892	4,3	1,8
0,8925	0,8	1,5
0,893	-4,0	1,4
0,8935	-8,9	1,6
0,894	-12,5	2,5
0,8945	-14,5	3,8
0,895	-15,1	5,3
0,8955	-14,7	6,2
0,896	-13,7	6,6
0,8965	-12,8	6,5
0,897	-13,3	6,0
0,8975	-16,1	4,8
0,898	-20,5	3,2
0,8985	-25,0	1,5
0,899	-28,4	0,2
0,8995	-30,2	-0,8
0,9	-30,4	-1,8
0,9005	-29,2	-2,5
0,901	-27,2	-3,0
0,9015	-25,1	-3,2
0,902	-23,8	-3,4
0,9025	-24,5	-4,3
0,903	-27,3	-5,9
0,9035	-31,4	-7,9
0,904	-35,7	-9,9
0,9045	-39,8	-11,4
0,905	-43,5	-12,3
0,9055	-46,5	-12,3
0,906	-48,1	-11,4
0,9065	-48,0	-9,8
0,907	-47,0	-8,5
0,9075	-45,7	-7,8
0,908	-44,3	-7,9
0,9085	-43,1	-8,4
0,909	-42,2	-9,2
0,9095	-41,4	-10,4
0,91	-40,2	-11,3
0,9105	-37,1	-11,2
0,911	-31,4	-9,5
0,9115	-23,0	-6,7
0,912	-12,9	-4,0
0,9125	-2,6	-1,9
0,913	7,0	-0,6
0,9135	13,8	-0,1
0,914	16,1	-0,6
0,9145	13,6	-2,2
0,915	8,2	-4,2
0,9155	3,0	-5,9
0,916	0,0	-6,6
0,9165	-0,7	-6,3
0,917	0,3	-5,3
0,9175	2,5	-3,6
0,918	5,6	-1,6
0,9185	8,8	0,3
0,919	11,2	1,4
0,9195	12,4	1,3
0,92	12,8	0,5
0,9205	13,1	-0,5
0,921	13,7	-1,8
0,9215	14,4	-3,4
0,922	15,7	-5,1
0,9225	18,2	-6,0
0,923	21,8	-6,1
0,9235	25,2	-5,7
0,924	27,0	-5,5
0,9245	26,7	-5,7
0,925	24,3	-6,2
0,9255	19,7	-7,1
0,926	12,3	-8,1
0,9265	2,3	-9,2
0,927	-9,5	-9,8
0,9275	-21,5	-9,5
0,928	-32,3	-8,1
0,9285	-40,6	-6,0
0,929	-45,7	-3,8
0,9295	-47,1	-1,8
0,93	-45,6	0,1
0,9305	-42,9	1,1
0,931	-40,8	0,9
0,9315	-39,3	-0,5
0,932	-37,6	-2,6
0,9325	-34,9	-4,5
0,933	-31,7	-5,8
0,9335	-28,3	-6,2
0,934	-24,7	-5,5
0,9345	-20,5	-3,7
0,935	-16,1	-1,0
0,9355	-12,6	1,6
0,936	-11,3	3,2
0,9365	-12,4	3,0
0,937	-14,8	1,4
0,9375	-17,4	-0,8
0,938	-19,4	-2,8
0,9385	-20,0	-4,2
0,939	-18,0	-4,3
0,9395	-13,3	-3,3
0,94	-7,0	-1,7
0,9405	-1,0	-0,1
0,941	3,3	0,8
0,9415	5,9	1,0
0,942	6,5	-0,1
0,9425	5,4	-2,1
0,943	3,3	-4,8
0,9435	1,0	-7,3
0,944	-0,1	-8,8
0,9445	0,6	-9,2
0,945	2,8	-8,8
0,9455	5,8	-8,1
0,946	8,7	-7,3
0,9465	10,4	-5,9
0,947	9,8	-4,1
0,9475	6,1	-2,8
0,948	0,0	-2,4
0,9485	-6,5	-3,1
0,949	-12,0	-4,2
0,9495	-15,8	-5,3
0,95	-17,8	-6,0
0,9505	-17,9	-5,9
0,951	-16,1	-5,3
0,9515	-12,9	-4,3
0,952	-9,8	-3,6
0,9525	-8,0	-3,7
0,953	-8,1	-4,7
0,9535	-9,7	-6,2
0,954	-12,2	-8,0
0,9545	-14,8	-9,8
0,955	-17,3	-11,3
0,9555	-18,7	-11,8
0,956	-18,2	-11,2
0,9565	-16,4	-9,9
0,957	-14,5	-8,7
0,9575	-13,6	-8,2
0,958	-13,8	-8,2
0,9585	-14,6	-8,4
0,959	-16,3	-8,9
0,9595	-18,9	-9,4
0,96	-22,2	-9,4
0,9605	-25,1	-8,7
0,961	-26,7	-7,1
0,9615	-27,0	-5,2
0,962	-26,5	-3,5
0,9625	-26,0	-2,3
0,963	-25,3	-1,4
0,9635	-24,9	-0,3
0,964	-25,6	0,7
0,9645	-27,3	1,2
0,965	-28,8	1,2
0,9655	-29,0	1,2
0,966	-27,8	1,6
0,9665	-25,6	2,1
0,967	-22,6	2,6
0,9675	-18,5	2,9
0,968	-13,5	3,3
0,9685	-8,8	3,3
0,969	-6,1	2,7
0,9695	-6,3	1,0
0,97	-9,1	-1,4
0,9705	-12,9	-4,1
0,971	-17,0	-6,8
0,9715	-20,9	-9,1
0,972	-23,8	-10,7
0,9725	-24,8	-11,2
0,973	-23,9	-10,9
0,9735	-22,3	-10,2
0,974	-21,9	-9,8
0,9745	-23,6	-9,8
0,975	-27,8	-10,1
0,9755	-34,6	-11,0
0,976	-42,6	-12,4
0,9765	-50,1	-14,1
0,977	-55,0	-15,7
0,9775	-56,2	-16,8
0,978	-53,7	-17,2
0,9785	-48,4	-16,8
0,979	-41,8	-16,0
0,9795	-34,9	-14,9
0,98	-28,7	-13,4
0,9805	-24,7	-12,0
0,981	-23,4	-11,3
0,9815	-24,4	-11,5
0,982	-25,9	-11,8
0,9825	-26,6	-11,9
0,983	-26,6	-11,8
0,9835	-26,0	-11,6
0,984	-24,4	-11,1
0,9845	-21,3	-10,0
0,985	-17,6	-8,5
0,9855	-15,5	-7,1
0,986	-16,0	-6,1
0,9865	-18,7	-5,5
0,987	-21,8	-5,0
0,9875	-23,6	-4,6
0,988	-23,5	-4,1
0,9885	-21,7	-3,2
0,989	-18,8	-1,4
0,9895	-15,4	1,2
0,99	-12,3	4,2
0,9905	-10,6	6,7
0,991	-11,0	7,8
0,9915	-14,0	7,4
0,992	-19,7	5,7
0,9925	-27,8	3,3
0,993	-37,7	1,0
0,9935	-48,2	-0,6
0,994	-58,3	-1,5
0,9945	-68,0	-1,7
0,995	-77,5	-1,6
0,9955	-86,3	-1,1
0,996	-93,0	-0,6
0,9965	-96,3	-0,4
0,997	-96,6	-1,1
0,9975	-94,8	-3,0
0,998	-91,0	-5,4
0,9985	-84,5	-7,5
0,999	-74,9	-8,7
0,9995	-63,2	-8,8
1	-51,3	-8,0
1,0005	-40,5	-6,7
1,001	-31,7	-5,1
1,0015	-24,8	-3,6
1,002	-19,9	-2,7
1,0025	-16,8	-2,7
1,003	-15,6	-3,9
1,0035	-16,1	-5,9
1,004	-17,7	-8,1
1,0045	-19,9	-10,1
1,005	-21,6	-11,2
1,0055	-21,7	-11,0
1,006	-19,5	-9,3
1,0065	-15,1	-6,8
1,007	-9,6	-4,3
1,0075	-4,3	-2,6
1,008	-0,1	-1,3
1,0085	2,3	-0,7
1,009	2,9	-1,0
1,0095	2,3	-2,7
1,01	1,1	-5,3
1,0105	0,6	-7,7
1,011	1,3	-8,9
1,0115	3,3	-8,7
1,012	6,6	-7,6
1,0125	10,8	-6,4
1,013	15,8	-5,8
1,0135	20,4	-5,8
1,014	23,1	-6,6
1,0145	22,9	-7,8
1,015	20,9	-9,1
1,0155	18,9	-10,1
1,016	18,4	-10,5
1,0165	19,6	-10,5
1,017	22,1	-9,6
1,0175	24,9	-7,4
1,018	26,8	-4,3
1,0185	26,3	-1,1
1,019	22,7	1,0
1,0195	16,3	1,4
1,02	8,8	0,6
1,0205	1,9	-1,1
1,021	-3,7	-3,2
1,0215	-7,6	-5,3
1,022	-9,7	-6,8
1,0225	-9,5	-7,2
1,023	-7,1	-6,4
1,0235	-3,4	-4,9
1,024	0,1	-3,3
1,0245	2,4	-2,2
1,025	3,1	-1,8
1,0255	1,9	-2,3
1,026	-1,1	-3,4
1,0265	-5,1	-4,5
1,027	-9,0	-5,0
1,0275	-11,5	-4,4
1,028	-12,2	-2,6
1,0285	-11,2	-0,1
1,029	-8,6	2,2
1,0295	-4,7	3,7
1,03	-0,3	4,1
1,0305	2,9	3,5
1,031	3,2	2,1
1,0315	1,0	0,4
1,032	-1,8	-1,0
1,0325	-3,6	-1,7
1,033	-3,7	-2,1
1,0335	-2,5	-2,3
1,034	-0,3	-2,3
1,0345	2,6	-1,9
1,035	5,5	-1,1
1,0355	7,5	-0,3
1,036	7,7	0,0
1,0365	6,1	-0,4
1,037	3,5	-1,7
1,0375	0,6	-3,5
1,038	-2,6	-5,7
1,0385	-5,3	-7,7
1,039	-6,5	-9,0
1,0395	-5,9	-9,6
1,04	-4,3	-9,6
1,0405	-3,3	-9,5
1,041	-3,7	-9,2
1,0415	-5,4	-8,8
1,042	-8,4	-8,5
1,0425	-12,7	-8,5
1,043	-17,8	-8,8
1,0435	-22,8	-8,8
1,044	-26,3	-8,1
1,0445	-27,6	-6,6
1,045	-27,3	-4,6
1,0455	-26,8	-2,3
1,046	-26,8	-0,0
1,0465	-27,3	2,0
1,047	-28,3	3,6
1,0475	-30,3	4,3
1,048	-32,4	3,9
1,0485	-33,5	2,4
1,049	-32,4	0,3
1,0495	-29,4	-2,0
1,05	-25,3	-3,9
1,0505	-20,1	-4,9
1,051	-14,2	-4,7
1,0515	-7,8	-3,5
1,052	-2,0	-2,3
1,0525	2,2	-2,0
1,053	4,4	-2,9
1,0535	4,9	-4,5
1,054	4,5	-6,3
1,0545	3,3	-8,1
1,055	1,8	-9,8
1,0555	0,7	-10,8
1,056	1,0	-10,9
1,0565	3,0	-10,1
1,057	5,7	-9,1
1,0575	8,0	-8,3
1,058	9,4	-7,9
1,0585	9,7	-7,8
1,059	8,0	-8,3
1,0595	4,5	-9,4
1,06	-0,4	-10,8
1,0605	-4,8	-12,1
1,061	-7,1	-13,0
1,0615	-7,2	-13,2
1,062	-5,4	-12,9
1,0625	-2,6	-12,2
1,063	0,6	-11,1
1,0635	3,1	-10,0
1,064	3,5	-9,2
1,0645	1,1	-8,8
1,065	-2,9	-8,8
1,0655	-6,7	-8,9
1,066	-9,2	-8,9
1,0665	-10,2	-8,6
1,067	-9,7	-7,8
1,0675	-7,5	-6,8
1,068	-3,8	-5,6
1,0685	0,5	-4,6
1,069	3,6	-4,3
1,0695	4,2	-4,5
1,07	2,2	-5,2
1,0705	-1,4	-6,1
1,071	-5,4	-7,3
1,0715	-8,9	-8,8
1,072	-11,0	-10,2
1,0725	-10,7	-10,9
1,073	-8,2	-10,6
1,0735	-4,7	-9,3
1,074	-1,9	-7,8
1,0745	-0,6	-6,1
1,075	-1,3	-4,5
1,0755	-4,0	-3,1
1,076	-8,8	-1,8
1,0765	-15,1	-0,6
1,077	-21,8	0,9
1,0775	-27,6	3,0
1,078	-32,4	5,3
1,0785	-36,5	7,5
1,079	-39,8	9,3
1,0795	-42,1	10,6
1,08	-42,9	11,2
1,0805	-42,9	10,5
1,081	-42,8	8,5
1,0815	-42,4	5,9
1,082	-40,8	3,7
1,0825	-37,8	2,2
1,083	-34,3	1,5
1,0835	-31,3	1,4
1,084	-28,6	1,9
1,0845	-26,0	2,7
1,085	-23,4	3,6
1,0855	-22,1	4,1
1,086	-23,6	3,8
1,0865	-28,7	2,6
1,087	-37,4	0,9
1,0875	-48,7	-0,8
1,088	-61,1	-2,5
1,0885	-72,7	-3,8
1,089	-81,3	-4,2
1,0895	-85,7	-3,8
1,09	-86,5	-2,8
1,0905	-84,9	-2,0
1,091	-81,2	-1,5
1,0915	-75,0	-1,4
1,092	-67,0	-1,7
1,0925	-58,8	-2,4
1,093	-51,9	-3,7
1,0935	-46,7	-5,2
1,094	-41,8	-6,4
1,0945	-35,9	-6,8
1,095	-28,6	-6,2
1,0955	-20,1	-4,9
1,096	-11,1	-3,4
1,0965	-2,5	-2,3
1,097	4,1	-2,2
1,0975	6,9	-3,3
1,098	5,8	-5,2
1,0985	2,5	-7,2
1,099	-0,8	-8,2
1,0995	-2,8	-7,7
1,1	-3,3	-6,0
1,1005	-1,9	-3,6
1,101	1,3	-1,1
1,1015	6,2	1,4
1,102	11,5	3,5
1,1025	15,8	4,7
1,103	18,1	5,0
1,1035	18,4	4,8
1,104	17,2	4,3
1,1045	14,9	3,9
1,105	12,4	3,8
1,1055	10,4	4,0
1,106	9,8	4,5
1,1065	10,1	5,3
1,107	10,2	6,1
1,1075	9,5	6,6
1,108	8,1	6,6
1,1085	6,1	5,9
1,109	3,3	4,5
1,1095	-0,4	2,3
1,11	-4,8	-0,2
1,1105	-8,8	-2,2
1,111	-11,6	-3,2
1,1115	-13,1	-2,9
1,112	-13,9	-1,8
1,1125	-14,3	-0,5
1,113	-14,6	0,8
1,1135	-15,0	1,7
1,114	-16,6	1,8
1,1145	-19,5	1,2
1,115	-23,2	0,6
1,1155	-26,2	0,4
1,116	-27,6	0,8
1,1165	-27,3	1,4
1,117	-25,5	2,5
1,1175	-22,6	3,8
1,118	-19,0	5,2
1,1185	-15,4	6,2
1,119	-13,3	6,5
1,1195	-13,9	6,2
1,12	-17,6	5,4
1,1205	-23,4	4,5
1,121	-29,9	3,2
1,1215	-35,5	1,7
1,122	-38,4	0,3
1,1225	-37,7	-0,3
1,123	-33,5	0,1
1,1235	-27,5	1,1
1,124	-22,0	2,1
1,1245	-18,2	2,9
1,125	-16,6	3,2
1,1255	-17,4	2,7
1,126	-20,0	1,1
1,1265	-23,4	-1,0
1,127	-25,8	-2,7
1,1275	-25,8	-3,1
1,128	-22,9	-2,4
1,1285	-18,1	-0,8
1,129	-12,7	1,2
1,1295	-7,7	3,2
1,13	-3,9	5,0
1,1305	-2,3	6,0
1,131	-3,7	6,0
1,1315	-7,7	5,1
1,132	-12,8	3,8
1,1325	-17,7	2,8
1,133	-21,4	2,4
1,1335	-23,7	2,4
1,134	-24,0	2,6
1,1345	-22,2	2,8
1,135	-18,8	2,5
1,1355	-15,0	1,8
1,136	-12,4	0,4
1,1365	-11,4	-1,4
1,137	-11,6	-3,2
1,1375	-12,4	-5,0
1,138	-13,7	-6,5
1,1385	-15,2	-7,3
1,139	-16,2	-7,3
1,1395	-15,5	-6,2
1,14	-13,1	-4,8
1,1405	-9,8	-3,8
1,141	-6,3	-3,8
1,1415	-2,8	-4,8
1,142	0,1	-6,6
1,1425	1,5	-9,1
1,143	0,9	-12,3
1,1435	-0,9	-15,5
1,144	-2,7	-18,4
1,1445	-3,9	-20,6
1,145	-4,4	-21,9
1,1455	-4,7	-22,4
1,146	-4,4	-21,8
1,1465	-3,6	-20,3
1,147	-3,0	-18,3
1,1475	-4,2	-16,8
1,148	-7,8	-16,3
1,1485	-13,1	-16,3
1,149	-18,6	-15,6
1,1495	-23,6	-13,3
1,15	-27,3	-9,6
1,1505	-28,9	-5,1
1,151	-27,9	-1,0
1,1515	-24,9	2,0
1,152	-21,7	3,5
1,1525	-20,4	3,6
1,153	-21,8	2,4
1,1535	-25,6	0,7
1,154	-30,5	-1,2
1,1545	-35,5	-2,3
1,155	-39,8	-2,6
1,1555	-42,3	-1,9
1,156	-42,2	-0,3
1,1565	-39,9	1,9
1,157	-36,4	3,6
1,1575	-32,9	4,1
1,158	-30,2	3,4
1,1585	-28,8	1,8
1,159	-29,5	-0,5
1,1595	-32,5	-3,0
1,16	-37,3	-5,1
1,1605	-42,0	-6,2
1,161	-45,1	-5,7
1,1615	-45,8	-4,2
1,162	-44,6	-2,3
1,1625	-42,2	-1,0
1,163	-38,6	-0,3
1,1635	-34,0	-0,3
1,164	-29,6	-1,0
1,1645	-26,6	-2,2
1,165	-25,7	-3,5
1,1655	-26,5	-4,2
1,166	-27,8	-4,1
1,1665	-29,0	-3,1
1,167	-29,8	-1,6
1,1675	-29,6	0,6
1,168	-28,7	3,4
1,1685	-27,8	6,2
1,169	-28,1	8,1
1,1695	-30,1	8,7
1,17	-33,1	8,0
1,1705	-36,4	6,6
1,171	-39,8	4,7
1,1715	-43,4	2,4
1,172	-46,6	0,3
1,1725	-47,7	-1,3
1,173	-45,7	-2,5
1,1735	-41,3	-3,7
1,174	-36,1	-5,1
1,1745	-30,9	-6,6
1,175	-26,2	-7,7
1,1755	-22,4	-8,1
1,176	-20,2	-8,3
1,1765	-20,1	-8,3
1,177	-21,6	-8,1
1,1775	-23,2	-7,5
1,178	-23,9	-6,2
1,1785	-22,9	-4,3
1,179	-20,6	-2,0
1,1795	-17,8	0,0
1,18	-15,5	1,5
1,1805	-14,6	2,2
1,181	-15,5	2,3
1,1815	-17,8	2,1
1,182	-20,2	2,1
1,1825	-21,6	2,5
1,183	-21,5	2,9
1,1835	-19,3	3,0
1,184	-13,9	2,6
1,1845	-5,1	2,0
1,185	5,7	1,4
1,1855	15,4	0,8
1,186	21,6	0,1
1,1865	24,0	-1,1
1,187	23,7	-2,5
1,1875	21,8	-3,7
1,188	19,3	-4,2
1,1885	16,4	-3,8
1,189	14,4	-2,2
1,1895	13,8	0,1
1,19	14,3	2,2
1,1905	15,0	3,6
1,191	15,0	4,2
1,1915	14,1	4,1
1,192	11,8	3,5
1,1925	7,2	2,3
1,193	0,2	0,7
1,1935	-8,5	-0,6
1,194	-16,8	-0,9
1,1945	-23,0	0,1
1,195	-26,7	1,8
1,1955	-28,8	3,5
1,196	-31,4	5,1
1,1965	-35,5	6,3
1,197	-41,5	6,6
1,1975	-48,9	5,7
1,198	-56,4	3,8
1,1985	-62,6	1,6
1,199	-66,3	0,2
1,1995	-67,4	-0,3
1,2	-65,8	-0,0
1,2005	-61,4	0,6
1,201	-54,1	1,3
1,2015	-44,8	1,9
1,202	-34,9	2,1
1,2025	-26,5	1,8
1,203	-20,4	0,8
1,2035	-16,8	-0,6
1,204	-15,0	-2,1
1,2045	-14,5	-3,6
1,205	-15,0	-5,1
1,2055	-15,8	-5,9
1,206	-16,1	-5,2
1,2065	-15,8	-2,8
1,207	-15,4	0,1
1,2075	-15,7	2,8
1,208	-16,9	4,6
1,2085	-19,2	5,4
1,209	-22,3	5,0
1,2095	-25,9	3,6
1,21	-29,2	1,4
1,2105	-31,3	-0,7
1,211	-31,1	-1,8
1,2115	-28,3	-1,7
1,212	-23,2	-0,6
1,2125	-17,0	0,8
1,213	-10,9	2,0
1,2135	-6,0	2,9
1,214	-3,6	3,1
1,2145	-3,9	2,3
1,215	-6,0	0,9
1,2155	-8,3	-0,3
1,216	-9,8	-0,9
1,2165	-10,8	-0,7
1,217	-11,5	-0,2
1,2175	-12,1	0,6
1,218	-12,5	1,8
1,2185	-12,9	3,4
1,219	-13,9	4,9
1,2195	-15,9	5,8
1,22	-18,9	6,2
1,2205	-22,2	5,9
1,221	-24,8	5,0
1,2215	-26,5	3,7
1,222	-27,1	2,7
1,2225	-26,4	2,7
1,223	-24,7	4,1
1,2235	-23,0	6,3
1,224	-22,2	8,3
1,2245	-22,7	9,5
1,225	-24,2	9,9
1,2255	-26,3	9,8
1,226	-28,9	9,4
1,2265	-31,7	8,8
1,227	-33,8	8,2
1,2275	-34,3	7,9
1,228	-32,8	8,2
1,2285	-29,8	8,7
1,229	-26,0	9,2
1,2295	-21,8	9,6
1,23	-17,3	9,8
1,2305	-13,4	9,6
1,231	-11,8	8,7
1,2315	-12,9	7,5
1,232	-15,5	6,4
1,2325	-17,8	5,8
1,233	-18,6	5,7
1,2335	-17,3	6,0
1,234	-13,7	6,7
1,2345	-8,6	7,6
1,235	-3,3	8,5
1,2355	0,4	8,8
1,236	1,8	8,2
1,2365	0,4	6,8
1,237	-3,2	5,2
1,2375	-8,2	3,8
1,238	-13,6	2,6
1,2385	-18,5	1,4
1,239	-21,7	0,1
1,2395	-22,6	-1,2
1,24	-21,7	-2,4
1,2405	-20,3	-3,5
1,241	-19,2	-4,2
1,2415	-18,6	-4,4
1,242	-18,8	-4,3
1,2425	-20,3	-4,5
1,243	-23,1	-5,2
1,2435	-26,4	-6,3
1,244	-29,1	-7,1
1,2445	-29,9	-7,2
1,245	-28,5	-6,4
1,2455	-25,5	-5,2
1,246	-21,7	-3,7
1,2465	-18,2	-2,2
1,247	-15,7	-0,9
1,2475	-14,8	-0,3
1,248	-15,4	-0,3
1,2485	-16,5	-0,8
1,249	-17,1	-1,4
1,2495	-16,5	-1,8
1,25	-15,2	-1,8
1,2505	-13,6	-1,4
1,251	-11,7	-0,8
1,2515	-9,3	-0,1
1,252	-6,8	0,5
1,2525	-5,4	0,8
1,253	-5,2	0,8
1,2535	-5,9	0,8
1,254	-6,7	0,9
1,2545	-7,7	0,9
1,255	-9,1	0,8
1,2555	-10,7	0,7
1,256	-11,2	1,2
1,2565	-10,5	2,4
1,257	-9,1	3,9
1,2575	-8,2	5,2
1,258	-8,0	5,6
1,2585	-8,1	5,3
1,259	-8,8	3,8
1,2595	-10,0	1,8
1,26	-11,6	0,0
1,2605	-12,3	-1,1
1,261	-11,2	-0,9
1,2615	-8,8	0,3
1,262	-6,8	2,1
1,2625	-6,8	4,2
1,263	-9,1	6,2
1,2635	-13,0	7,7
1,264	-18,1	8,3
1,2645	-24,8	8,2
1,265	-33,0	7,8
1,2655	-41,9	7,2
1,266	-50,3	6,5
1,2665	-57,0	5,4
1,267	-60,4	4,1
1,2675	-59,6	3,0
1,268	-54,9	2,4
1,2685	-47,3	1,9
1,269	-39,1	0,9
1,2695	-32,2	-1,0
1,27	-27,1	-3,6
1,2705	-24,1	-6,3
1,271	-22,8	-8,6
1,2715	-23,2	-10,4
1,272	-24,4	-11,6
1,2725	-24,7	-11,8
1,273	-23,6	-10,7
1,2735	-21,5	-8,5
1,274	-19,9	-5,9
1,2745	-19,4	-3,3
1,275	-20,0	-0,8
1,2755	-21,7	1,1
1,276	-24,5	2,1
1,2765	-27,8	2,1
1,277	-30,4	1,4
1,2775	-30,8	0,8
1,278	-28,2	1,0
1,2785	-22,8	2,4
1,279	-15,8	4,4
1,2795	-8,5	6,4
1,28	-2,0	7,6
1,2805	2,3	7,3
1,281	3,7	5,9
1,2815	2,5	3,9
1,282	0,2	2,3
1,2825	-1,6	1,4
1,283	-2,3	1,1
1,2835	-2,1	1,1
1,284	-0,5	1,2
1,2845	2,3	1,5
1,285	6,1	1,8
1,2855	9,6	2,0
1,286	11,5	1,5
1,2865	11,2	0,2
1,287	9,0	-1,9
1,2875	5,9	-4,4
1,288	2,6	-7,1
1,2885	-0,9	-9,6
1,289	-4,4	-11,6
1,2895	-8,0	-12,5
1,29	-11,7	-12,6
1,2905	-15,9	-12,4
1,291	-20,5	-12,6
1,2915	-25,1	-13,3
1,292	-29,6	-14,3
1,2925	-33,9	-15,4
1,293	-37,5	-16,2
1,2935	-39,2	-16,6
1,294	-37,9	-16,1
1,2945	-33,9	-14,6
1,295	-27,9	-12,5
1,2955	-21,3	-10,5
1,296	-14,6	-9,2
1,2965	-8,1	-8,5
1,297	-2,8	-8,4
1,2975	0,2	-8,9
1,298	0,5	-9,7
1,2985	-1,1	-10,4
1,299	-3,0	-10,8
1,2995	-4,4	-10,8
1,3	-5,1	-10,5
1,3005	-4,8	-9,9
1,301	-3,7	-8,7
1,3015	-2,1	-6,7
1,302	-1,0	-4,1
1,3025	-1,3	-1,3
1,303	-3,5	1,1
1,3035	-6,8	2,7
1,304	-10,6	3,3
1,3045	-14,5	3,2
1,305	-18,4	2,9
1,3055	-21,4	3,0
1,306	-22,5	4,0
1,3065	-21,9	5,3
1,307	-21,0	6,3
1,3075	-20,9	6,3
1,308	-21,9	4,9
1,3085	-23,8	2,6
1,309	-26,1	-0,3
1,3095	-28,2	-3,6
1,31	-29,5	-6,6
1,3105	-29,4	-8,7
1,311	-27,5	-9,5
1,3115	-23,8	-9,2
1,312	-18,9	-8,4
1,3125	-13,5	-7,4
1,313	-8,5	-6,3
1,3135	-4,5	-5,1
1,314	-2,7	-4,5
1,3145	-3,6	-4,5
1,315	-6,6	-5,1
1,3155	-10,2	-5,8
1,316	-12,8	-6,1
1,3165	-14,0	-5,9
1,317	-13,9	-5,2
1,3175	-12,8	-4,0
1,318	-10,8	-2,7
1,3185	-8,0	-1,6
1,319	-5,6	-1,2
1,3195	-4,8	-1,9
1,32	-6,1	-3,2
1,3205	-9,2	-4,4
1,321	-13,3	-5,3
1,3215	-17,8	-5,8
1,322	-21,9	-6,3
1,3225	-24,5	-6,3
1,323	-25,3	-5,8
1,3235	-24,7	-5,1
1,324	-24,5	-4,4
1,3245	-25,9	-4,1
1,325	-29,0	-3,9
1,3255	-33,8	-3,7
1,326	-40,0	-3,6
1,3265	-47,6	-3,6
1,327	-55,8	-3,5
1,3275	-62,7	-3,0
1,328	-66,7	-2,2
1,3285	-67,3	-1,2
1,329	-64,9	-0,6
1,3295	-61,2	-0,3
1,33	-57,3	-0,3
1,3305	-54,7	-0,6
1,331	-53,8	-1,2
1,3315	-54,1	-2,2
1,332	-53,8	-3,2
1,3325	-51,8	-4,0
1,333	-48,0	-4,4
1,3335	-43,1	-4,7
1,334	-36,8	-5,0
1,3345	-28,5	-5,3
1,335	-18,2	-5,2
1,3355	-7,4	-5,2
1,336	1,5	-5,7
1,3365	7,4	-6,7
1,337	10,6	-7,4
1,3375	12,1	-7,4
1,338	12,4	-6,7
1,3385	12,2	-5,6
1,339	12,4	-4,6
1,3395	13,7	-3,8
1,34	16,1	-3,2
1,3405	18,6	-2,9
1,341	20,3	-3,0
1,3415	20,8	-3,1
1,342	19,8	-3,0
1,3425	16,4	-2,8
1,343	10,4	-2,3
1,3435	2,7	-1,6
1,344	-4,7	-0,2
1,3445	-9,7	1,8
1,345	-11,7	3,9
1,3455	-10,8	5,9
1,346	-8,2	7,3
1,3465	-5,3	8,2
1,347	-4,0	8,8
1,3475	-5,6	9,0
1,348	-10,0	8,9
1,3485	-15,4	8,6
1,349	-19,8	8,2
1,3495	-22,1	7,8
1,35	-22,8	7,7
1,3505	-22,2	7,8
1,351	-20,3	8,3
1,3515	-16,8	8,9
1,352	-12,5	9,4
1,3525	-8,9	9,3
1,353	-7,2	8,4
1,3535	-7,2	7,1
1,354	-8,5	5,7
1,3545	-10,6	4,5
1,355	-13,3	3,3
1,3555	-16,1	2,3
1,356	-18,0	1,7
1,3565	-19,3	1,3
1,357	-21,0	0,4
1,3575	-24,9	-0,9
1,358	-31,3	-2,4
1,3585	-39,9	-3,4
1,359	-49,8	-4,3
1,3595	-59,6	-5,3
1,36	-67,7	-6,5
1,3605	-72,4	-7,2
1,361	-72,8	-6,7
1,3615	-69,0	-5,3
1,362	-62,9	-3,6
1,3625	-56,2	-2,1
1,363	-50,1	-1,0
1,3635	-45,0	-0,6
1,364	-41,6	-1,1
1,3645	-39,7	-2,6
1,365	-38,8	-4,7
1,3655	-37,8	-6,8
1,366	-36,0	-8,2
1,3665	-33,0	-9,0
1,367	-28,5	-9,2
1,3675	-22,3	-9,0
1,368	-14,6	-8,4
1,3685	-6,3	-7,5
1,369	1,6	-6,9
1,3695	7,9	-7,1
1,37	12,6	-8,2
1,3705	15,6	-9,9
1,371	17,4	-11,7
1,3715	18,5	-13,2
1,372	19,4	-14,2
1,3725	20,8	-14,2
1,373	22,7	-12,9
1,3735	23,9	-10,5
1,374	23,1	-7,6
1,3745	19,5	-5,1
1,375	13,7	-3,3
1,3755	5,5	-2,6
1,376	-5,1	-2,7
1,3765	-17,3	-2,5
1,377	-29,2	-1,4
1,3775	-38,5	1,1
1,378	-44,1	4,4
1,3785	-46,4	7,1
1,379	-46,7	8,1
1,3795	-45,3	7,2
1,38	-42,9	5,3
1,3805	-40,5	3,2
1,381	-39,3	1,4
1,3815	-39,2	0,0
1,382	-39,8	-0,8
1,3825	-40,6	-1,2
1,383	-41,6	-1,2
1,3835	-42,5	-1,1
1,384	-42,6	-0,6
1,3845	-41,0	0,6
1,385	-37,9	2,4
1,3855	-34,3	4,4
1,386	-31,9	5,8
1,3865	-31,7	6,2
1,387	-33,6	5,3
1,3875	-36,8	3,7
1,388	-40,1	1,8
1,3885	-42,6	0,0
1,389	-42,9	-0,8
1,3895	-40,7	-0,4
1,39	-36,8	1,2
1,3905	-33,0	3,3
1,391	-30,1	4,9
1,3915	-28,1	5,8
1,392	-26,6	5,4
1,3925	-26,1	3,9
1,393	-26,8	1,6
1,3935	-28,1	-0,9
1,394	-28,3	-2,6
1,3945	-25,8	-3,0
1,395	-20,0	-2,2
1,3955	-12,4	-0,7
1,396	-4,3	1,1
1,3965	3,3	2,2
1,397	9,7	2,2
1,3975	13,3	0,9
1,398	13,2	-1,3
1,3985	10,1	-3,3
1,399	6,2	-4,5
1,3995	3,1	-4,8
1,4	1,3	-4,3
1,4005	0,4	-3,3
1,401	0,7	-1,7
1,4015	1,6	0,1
1,402	2,4	1,2
1,4025	1,8	1,0
1,403	-1,0	-0,1
1,4035	-5,7	-1,4
1,404	-11,5	-2,3
1,4045	-17,5	-2,9
1,405	-23,2	-3,5
1,4055	-27,5	-3,8
1,406	-29,4	-3,4
1,4065	-28,7	-2,6
1,407	-26,5	-1,9
1,4075	-24,8	-1,5
1,408	-24,7	-1,0
1,4085	-26,8	-0,3
1,409	-30,9	0,1
1,4095	-36,3	-0,6
1,41	-41,8	-2,4
1,4105	-46,2	-4,6
1,411	-48,2	-6,2
1,4115	-47,4	-6,4
1,412	-44,3	-5,1
1,4125	-39,9	-2,9
1,413	-35,0	-0,7
1,4135	-30,6	0,9
1,414	-27,7	1,4
1,4145	-26,9	0,7
1,415	-27,6	-0,9
1,4155	-28,7	-2,6
1,416	-29,7	-3,6
1,4165	-30,9	-3,8
1,417	-31,9	-3,1
1,4175	-31,9	-1,9
1,418	-30,6	-0,3
1,4185	-28,7	1,5
1,419	-27,3	3,1
1,4195	-27,2	3,9
1,42	-28,5	3,7
1,4205	-30,8	2,2
1,421	-33,6	-0,1
1,4215	-36,5	-2,1
1,422	-38,8	-2,9
1,4225	-39,1	-2,0
1,423	-36,8	-0,0
1,4235	-32,8	2,0
1,424	-28,8	3,1
1,4245	-26,0	3,1
1,425	-24,3	2,4
1,4255	-23,5	1,5
1,426	-24,1	0,6
1,4265	-26,7	-0,1
1,427	-31,1	-0,8
1,4275	-35,4	-1,6
1,428	-37,9	-2,3
1,4285	-38,1	-2,9
1,429	-36,5	-3,4
1,4295	-33,8	-4,2
1,43	-30,5	-5,3
1,4305	-27,1	-6,9
1,431	-24,8	-9,2
1,4315	-24,2	-11,7
1,432	-24,3	-14,0
1,4325	-23,9	-15,6
1,433	-22,5	-16,2
1,4335	-20,2	-16,1
1,434	-17,3	-15,5
1,4345	-13,8	-14,3
1,435	-10,6	-12,7
1,4355	-8,7	-10,9
1,436	-9,1	-9,6
1,4365	-11,9	-8,9
1,437	-15,9	-8,7
1,4375	-20,0	-8,5
1,438	-24,3	-8,2
1,4385	-29,0	-7,5
1,439	-33,6	-6,2
1,4395	-36,7	-3,9
1,44	-37,5	-1,0
1,4405	-36,2	2,2
1,441	-33,7	4,8
1,4415	-30,5	6,3
1,442	-27,5	6,9
1,4425	-26,3	6,7
1,443	-27,7	5,8
1,4435	-31,0	4,6
1,444	-33,8	3,7
1,4445	-34,4	3,5
1,445	-33,0	4,3
1,4455	-30,8	5,9
1,446	-29,0	7,7
1,4465	-27,9	9,2
1,447	-27,3	10,0
1,4475	-27,6	9,7
1,448	-29,2	8,7
1,4485	-32,0	7,6
1,449	-34,9	6,9
1,4495	-36,6	6,5
1,45	-35,7	6,1
1,4505	-31,8	5,7
1,451	-25,1	5,8
1,4515	-16,9	6,5
1,452	-8,8	7,7
1,4525	-2,9	8,8
1,453	-0,3	9,6
1,4535	-0,9	9,6
1,454	-3,6	8,8
1,4545	-7,6	7,6
1,455	-12,5	6,6
1,4555	-17,3	6,3
1,456	-20,9	7,0
1,4565	-22,6	8,3
1,457	-22,4	9,8
1,4575	-21,1	10,8
1,458	-18,9	10,8
1,4585	-16,7	10,1
1,459	-15,2	8,7
1,4595	-14,8	7,1
1,46	-15,2	5,5
1,4605	-15,4	4,3
1,461	-14,5	4,0
1,4615	-12,4	4,7
1,462	-9,4	6,0
1,4625	-6,1	7,5
1,463	-3,1	9,0
1,4635	-0,8	10,6
1,464	-0,3	11,9
1,4645	-2,5	12,5
1,465	-6,9	12,2
1,4655	-12,2	11,6
1,466	-17,0	11,1
1,4665	-21,5	11,3
1,467	-26,2	12,2
1,4675	-31,2	13,4
1,468	-36,3	14,5
1,4685	-40,8	15,1
1,469	-45,0	14,8
1,4695	-49,0	13,7
1,47	-52,8	12,2
1,4705	-56,2	11,0
1,471	-58,8	10,3
1,4715	-60,8	9,9
1,472	-62,2	9,4
1,4725	-62,2	9,1
1,473	-60,1	9,0
1,4735	-56,8	9,3
1,474	-53,6	9,4
1,4745	-52,0	9,2
1,475	-51,7	8,8
1,4755	-52,0	8,3
1,476	-52,7	7,5
1,4765	-53,5	6,3
1,477	-54,3	4,9
1,4775	-54,6	3,8
1,478	-53,6	3,5
1,4785	-51,3	3,9
1,479	-47,9	4,5
1,4795	-43,7	4,9
1,48	-39,3	4,9
1,4805	-35,6	4,3
1,481	-33,8	3,0
1,4815	-34,3	1,3
1,482	-36,1	-0,4
1,4825	-37,8	-1,4
1,483	-38,3	-1,7
1,4835	-37,6	-1,8
1,484	-35,8	-2,0
1,4845	-33,1	-2,1
1,485	-30,5	-1,9
1,4855	-28,9	-1,1
1,486	-29,3	0,3
1,4865	-31,4	1,5
1,487	-34,5	2,0
1,4875	-38,2	2,0
1,488	-42,3	1,9
1,4885	-46,2	2,4
1,489	-48,8	3,8
1,4895	-48,3	5,9
1,49	-44,4	8,0
1,4905	-38,3	9,2
1,491	-32,1	8,9
1,4915	-27,3	7,8
1,492	-24,9	6,7
1,4925	-25,3	5,9
1,493	-28,3	5,3
1,4935	-32,5	4,2
1,494	-35,9	2,8
1,4945	-37,1	2,0
1,495	-36,2	2,0
1,4955	-33,8	2,9
1,496	-30,7	4,0
1,4965	-27,2	5,4
1,497	-24,1	6,8
1,4975	-22,3	8,0
1,498	-22,3	8,3
1,4985	-23,1	7,8
1,499	-23,5	7,1
1,4995	-22,8	6,4
1,5	-21,0	5,8
1,5005	-18,7	5,5
1,501	-16,0	5,9
1,5015	-14,0	7,2
1,502	-13,6	8,9
1,5025	-15,5	10,2
1,503	-19,4	10,5
1,5035	-24,5	9,9
1,504	-29,5	8,8
1,5045	-33,8	7,3
1,505	-37,3	5,9
1,5055	-39,5	5,0
1,506	-39,8	5,1
1,5065	-38,1	5,9
1,507	-35,1	7,0
1,5075	-32,1	7,7
1,508	-30,1	8,2
1,5085	-29,5	8,8
1,509	-30,5	9,3
1,5095	-33,1	9,3
1,51	-36,7	8,4
1,5105	-40,3	7,0
1,511	-42,7	5,7
1,5115	-43,2	5,0
1,512	-42,1	4,9
1,5125	-39,5	5,3
1,513	-35,9	5,8
1,5135	-31,8	6,2
1,514	-28,5	5,9
1,5145	-27,3	5,0
1,515	-28,3	3,8
1,5155	-30,5	2,8
1,516	-32,7	2,5
1,5165	-34,3	2,5
1,517	-34,9	2,8
1,5175	-34,1	3,2
1,518	-31,7	3,9
1,5185	-27,9	4,9
1,519	-24,0	5,7
1,5195	-21,2	6,0
1,52	-20,1	5,6
1,5205	-20,3	4,8
1,521	-21,0	3,6
1,5215	-21,2	1,8
1,522	-20,3	-0,4
1,5225	-17,6	-2,6
1,523	-13,4	-4,0
1,5235	-9,3	-4,8
1,524	-6,8	-5,3
1,5245	-6,8	-5,7
1,525	-9,1	-5,9
1,5255	-13,3	-5,7
1,526	-19,3	-5,5
1,5265	-26,3	-5,6
1,527	-33,0	-5,7
1,5275	-37,2	-5,0
1,528	-38,0	-3,2
1,5285	-35,6	-0,3
1,529	-31,5	2,7
1,5295	-27,1	5,4
1,53	-23,3	7,8
1,5305	-20,5	9,6
1,531	-19,7	10,3
1,5315	-20,8	9,6
1,532	-22,8	7,9
1,5325	-23,9	6,0
1,533	-23,7	4,4
1,5335	-22,2	3,5
1,534	-19,9	3,4
1,5345	-17,6	4,2
1,535	-16,4	5,5
1,5355	-17,3	6,9
1,536	-21,3	7,9
1,5365	-28,6	8,3
1,537	-37,3	7,9
1,5375	-45,6	6,8
1,538	-51,7	5,4
1,5385	-55,4	4,0
1,539	-56,8	3,3
1,5395	-55,7	3,6
1,54	-52,7	4,5
1,5405	-48,9	5,5
1,541	-45,4	6,0
1,5415	-42,6	6,1
1,542	-40,5	5,9
1,5425	-39,4	5,5
1,543	-39,8	4,6
1,5435	-41,4	3,3
1,544	-42,7	2,1
1,5445	-41,8	1,5
1,545	-38,3	1,7
1,5455	-33,2	2,5
1,546	-27,5	3,7
1,5465	-21,7	4,9
1,547	-16,2	5,8
1,5475	-12,2	5,8
1,548	-10,9	5,0
1,5485	-12,2	4,2
1,549	-14,7	4,3
1,5495	-17,2	5,3
1,55	-19,4	6,7
1,5505	-21,1	8,1
1,551	-21,6	9,7
1,5515	-20,6	11,7
1,552	-18,2	13,8
1,5525	-15,7	15,3
1,553	-14,6	15,6
1,5535	-15,3	15,0
1,554	-17,0	13,9
1,5545	-18,6	12,6
1,555	-19,4	11,6
1,5555	-19,2	11,1
1,556	-17,5	11,6
1,5565	-14,2	12,9
1,557	-10,3	14,1
1,5575	-7,1	14,5
1,558	-5,4	14,1
1,5585	-5,5	13,4
1,559	-7,9	12,5
1,5595	-12,6	11,5
1,56	-18,6	10,5
1,5605	-24,3	9,6
1,561	-27,6	9,2
1,5615	-27,4	9,4
1,562	-24,0	10,3
1,5625	-18,6	11,8
1,563	-12,7	14,2
1,5635	-7,8	17,1
1,564	-5,7	19,3
1,5645	-7,3	19,7
1,565	-11,5	18,4
1,5655	-16,0	16,5
1,566	-19,3	15,2
1,5665	-21,1	14,8
1,567	-22,4	15,3
1,5675	-23,5	16,0
1,568	-24,2	16,7
1,5685	-24,1	17,3
1,569	-23,5	17,6
1,5695	-23,2	17,6
1,57	-23,8	17,3
1,5705	-25,4	16,5
1,571	-27,3	15,5
1,5715	-29,3	14,3
1,572	-30,4	13,3
1,5725	-29,6	13,1
1,573	-26,4	14,0
1,5735	-21,9	15,4
1,574	-17,8	16,8
1,5745	-15,5	17,4
1,575	-15,2	17,6
1,5755	-16,8	17,8
1,576	-20,1	17,6
1,5765	-24,8	16,5
1,577	-29,9	14,5
1,5775	-34,1	12,4
1,578	-36,5	11,3
1,5785	-37,4	11,5
1,579	-37,7	12,3
1,5795	-37,7	13,1
1,58	-37,1	13,4
1,5805	-36,1	13,2
1,581	-35,5	12,2
1,5815	-35,8	10,8
1,582	-36,8	9,8
1,5825	-37,4	9,6
1,583	-36,9	10,3
1,5835	-35,7	11,6
1,584	-33,6	12,9
1,5845	-30,8	14,2
1,585	-27,4	15,3
1,5855	-24,4	16,0
1,586	-22,8	15,8
1,5865	-23,4	14,8
1,587	-26,0	13,3
1,5875	-30,1	12,1
1,588	-35,1	11,3
1,5885	-40,1	11,0
1,589	-43,8	10,8
1,5895	-45,2	10,9
1,59	-44,9	10,9
1,5905	-44,1	10,9
1,591	-44,3	11,3
1,5915	-45,5	12,3
1,592	-47,4	13,8
1,5925	-49,8	14,8
1,593	-52,2	14,6
1,5935	-54,1	13,3
1,594	-54,4	11,2
1,5945	-52,0	9,4
1,595	-46,7	8,6
1,5955	-39,1	8,9
1,596	-30,3	9,8
1,5965	-21,3	10,8
1,597	-13,7	11,6
1,5975	-9,2	11,8
1,598	-9,4	11,3
1,5985	-13,9	10,6
1,599	-21,2	10,2
1,5995	-29,0	10,3
1,6	-36,0	10,7
1,6005	-41,3	11,4
1,601	-44,3	12,1
1,6015	-44,8	13,0
1,602	-43,3	14,0
1,6025	-41,0	15,0
1,603	-38,9	15,4
1,6035	-37,4	15,0
1,604	-36,5	13,8
1,6045	-36,0	12,4
1,605	-35,6	11,2
1,6055	-34,5	10,6
1,606	-32,2	10,8
1,6065	-28,1	11,7
1,607	-23,1	12,7
1,6075	-18,2	13,2
1,608	-14,5	13,1
1,6085	-12,2	12,7
1,609	-11,8	12,0
1,6095	-13,6	10,9
1,61	-17,1	9,4
1,6105	-20,7	7,9
1,611	-22,8	7,2
1,6115	-22,5	7,4
1,612	-19,8	8,5
1,6125	-15,4	10,0
1,613	-9,8	11,4
1,6135	-3,6	12,5
1,614	1,6	13,1
1,6145	3,9	12,9
1,615	2,9	12,0
1,6155	-0,3	10,8
1,616	-3,7	9,6
1,6165	-6,3	8,4
1,617	-7,9	7,4
1,6175	-8,1	7,0
1,618	-6,9	7,7
1,6185	-4,8	9,4
1,619	-2,8	11,3
1,6195	-2,2	12,3
1,62	-3,3	12,0
1,6205	-5,8	10,6
1,621	-8,9	8,5
1,6215	-12,3	6,5
1,622	-15,2	5,0
1,6225	-16,9	4,6
1,623	-16,7	5,7
1,6235	-15,2	7,7
1,624	-13,9	9,9
1,6245	-13,8	11,9
1,625	-15,4	13,5
1,6255	-18,4	15,0
1,626	-22,8	16,0
1,6265	-28,0	16,3
1,627	-33,3	15,8
1,6275	-37,1	15,3
1,628	-37,7	16,1
1,6285	-34,8	18,5
1,629	-29,2	22,2
1,6295	-22,1	25,8
1,63	-15,1	28,7
1,6305	-10,0	30,9
1,631	-8,5	32,3
1,6315	-11,1	32,7
1,632	-16,3	32,1
1,6325	-21,9	30,6
1,633	-26,1	28,8
1,6335	-27,9	27,1
1,634	-27,0	26,0
1,6345	-23,5	25,7
1,635	-18,5	26,1
1,6355	-14,3	26,7
1,636	-12,6	26,8
1,6365	-14,3	26,3
1,637	-18,6	25,5
1,6375	-24,0	24,9
1,638	-29,6	24,5
1,6385	-34,5	24,3
1,639	-37,3	24,2
1,6395	-36,9	24,4
1,64	-33,8	24,8
1,6405	-29,6	24,8
1,641	-26,3	24,4
1,6415	-24,8	23,8
1,642	-25,9	23,0
1,6425	-30,5	22,0
1,643	-38,6	20,7
1,6435	-48,5	19,3
1,644	-57,0	18,3
1,6445	-62,2	18,0
1,645	-64,2	18,4
1,6455	-64,9	19,4
1,646	-65,6	20,6
1,6465	-66,1	21,8
1,647	-65,6	22,6
1,6475	-64,7	22,4
1,648	-64,4	21,4
1,6485	-65,3	20,0
1,649	-66,3	18,9
1,6495	-65,8	18,4
1,65	-62,7	18,3
1,6505	-56,3	18,8
1,651	-46,5	20,0
1,6515	-34,3	21,8
1,652	-21,2	23,4
1,6525	-9,8	24,2
1,653	-2,1	24,2
1,6535	1,7	24,3
1,654	2,4	24,8
1,6545	1,1	25,8
1,655	-1,9	26,6
1,6555	-5,7	27,1
1,656	-9,3	27,8
1,6565	-12,4	29,1
1,657	-15,2	31,0
1,6575	-18,5	32,8
1,658	-22,3	34,1
1,6585	-26,3	35,0
1,659	-30,7	35,3
1,6595	-35,9	34,8
1,66	-41,7	33,2
1,6605	-46,4	31,0
1,661	-47,8	29,2
1,6615	-44,8	28,0
1,662	-38,3	27,5
1,6625	-30,0	27,3
1,663	-21,8	27,4
1,6635	-14,3	27,6
1,664	-8,4	27,2
1,6645	-4,3	25,7
1,665	-1,8	22,9
1,6655	-0,0	19,9
1,666	2,0	17,6
1,6665	4,6	16,4
1,667	7,6	16,3
1,6675	10,7	17,0
1,668	13,8	18,1
1,6685	16,6	19,6
1,669	18,6	21,2
1,6695	18,8	22,0
1,67	17,4	21,8
1,6705	15,3	20,6
1,671	13,6	19,0
1,6715	12,6	17,3
1,672	12,2	16,0
1,6725	12,3	15,1
1,673	13,2	14,6
1,6735	14,8	14,2
1,674	16,4	13,4
1,6745	17,2	12,3
1,675	16,7	10,9
1,6755	15,0	9,3
1,676	12,1	7,5
1,6765	8,0	5,7
1,677	3,2	4,3
1,6775	-1,2	3,8
1,678	-3,9	4,4
1,6785	-4,8	5,9
1,679	-4,3	7,9
1,6795	-3,6	10,0
1,68	-3,5	11,8
1,6805	-4,7	13,3
1,681	-8,1	14,1
1,6815	-14,0	14,4
1,682	-21,7	14,8
1,6825	-29,5	15,5
1,683	-36,1	16,7
1,6835	-40,4	18,0
1,684	-41,7	19,3
1,6845	-39,6	20,3
1,685	-34,3	20,6
1,6855	-26,9	19,9
1,686	-19,8	18,2
1,6865	-14,5	15,3
1,687	-11,2	11,8
1,6875	-9,4	8,6
1,688	-8,5	6,2
1,6885	-8,4	4,9
1,689	-8,3	4,8
1,6895	-7,0	5,4
1,69	-4,6	6,4
1,6905	-2,0	7,4
1,691	-0,4	8,1
1,6915	-0,3	8,4
1,692	-2,0	8,5
1,6925	-5,5	8,4
1,693	-10,9	8,3
1,6935	-17,5	8,3
1,694	-24,1	8,3
1,6945	-29,3	8,8
1,695	-32,6	10,0
1,6955	-34,3	11,4
1,696	-35,0	12,7
1,6965	-35,1	13,7
1,697	-34,8	14,3
1,6975	-34,6	14,6
1,698	-35,3	14,5
1,6985	-36,6	14,1
1,699	-37,8	14,0
1,6995	-38,0	14,5
1,7	-37,2	15,6
1,7005	-35,6	17,1
1,701	-33,0	19,2
1,7015	-29,4	21,6
1,702	-25,1	23,9
1,7025	-21,1	25,6
1,703	-18,6	26,3
1,7035	-18,3	26,3
1,704	-19,7	25,4
1,7045	-21,7	24,3
1,705	-23,0	23,4
1,7055	-22,7	23,2
1,706	-20,0	24,2
1,7065	-15,5	26,1
1,707	-10,9	28,4
1,7075	-8,1	29,8
1,708	-7,8	29,7
1,7085	-8,8	28,2
1,709	-9,7	25,8
1,7095	-10,0	23,2
1,71	-9,5	20,8
1,7105	-8,2	19,1
1,711	-6,3	18,4
1,7115	-3,6	18,6
1,712	-0,6	19,6
1,7125	2,5	20,6
1,713	5,4	21,4
1,7135	8,1	21,8
1,714	9,7	21,7
1,7145	9,2	20,8
1,715	6,6	19,5
1,7155	3,0	18,6
1,716	-0,4	18,2
1,7165	-3,2	17,9
1,717	-5,2	17,5
1,7175	-6,3	16,9
1,718	-6,5	16,4
1,7185	-5,9	16,2
1,719	-5,7	16,2
1,7195	-7,1	15,9
1,72	-10,4	15,1
1,7205	-14,9	13,4
1,721	-19,5	11,2
1,7215	-23,8	8,7
1,722	-27,4	6,3
1,7225	-29,5	4,6
1,723	-29,6	3,8
1,7235	-28,4	4,0
1,724	-27,2	5,0
1,7245	-26,7	6,4
1,725	-27,3	7,8
1,7255	-28,8	8,6
1,726	-31,7	8,8
1,7265	-36,4	8,6
1,727	-42,4	8,6
1,7275	-48,0	9,4
1,728	-51,3	10,9
1,7285	-51,9	12,8
1,729	-50,3	14,5
1,7295	-47,8	15,7
1,73	-44,6	16,3
1,7305	-41,4	16,4
1,731	-38,8	15,9
1,7315	-37,6	15,3
1,732	-37,2	15,0
1,7325	-36,8	15,8
1,733	-35,8	17,3
1,7335	-34,3	18,9
1,734	-31,7	20,3
1,7345	-28,1	21,3
1,735	-23,6	22,3
1,7355	-19,3	23,0
1,736	-16,6	22,7
1,7365	-16,1	21,2
1,737	-17,3	18,8
1,7375	-19,6	16,4
1,738	-22,3	14,5
1,7385	-25,2	13,6
1,739	-27,3	13,8
1,7395	-27,5	14,7
1,74	-25,3	16,0
1,7405	-21,6	17,2
1,741	-17,3	17,9
1,7415	-13,2	18,4
1,742	-10,1	18,5
1,7425	-8,8	18,0
1,743	-9,6	16,7
1,7435	-12,1	14,8
1,744	-14,9	13,1
1,7445	-16,5	12,3
1,745	-16,2	13,0
1,7455	-14,9	14,5
1,746	-13,8	16,1
1,7465	-13,6	17,3
1,747	-14,4	17,8
1,7475	-16,7	17,5
1,748	-20,9	16,5
1,7485	-26,1	15,2
1,749	-31,0	14,0
1,7495	-34,3	13,3
1,75	-36,3	12,7
1,7505	-37,2	12,1
1,751	-37,1	11,8
1,7515	-35,8	11,6
1,752	-33,6	11,6
1,7525	-31,6	11,5
1,753	-31,6	11,0
1,7535	-35,0	10,2
1,754	-42,5	9,3
1,7545	-53,1	8,8
1,755	-65,0	8,4
1,7555	-75,5	8,3
1,756	-82,1	8,6
1,7565	-84,0	9,1
1,757	-82,2	9,3
1,7575	-78,0	9,1
1,758	-72,3	8,7
1,7585	-65,4	8,3
1,759	-57,5	7,8
1,7595	-49,0	7,0
1,76	-40,8	5,7
1,7605	-33,5	4,1
1,761	-26,9	2,8
1,7615	-20,5	2,2
1,762	-14,2	2,3
1,7625	-8,6	2,8
1,763	-3,7	3,5
1,7635	0,3	4,2
1,764	2,6	4,2
1,7645	2,5	3,2
1,765	0,1	1,4
1,7655	-3,3	-0,4
1,766	-6,3	-1,8
1,7665	-8,5	-2,3
1,767	-10,0	-1,9
1,7675	-10,9	-0,3
1,768	-11,4	2,5
1,7685	-11,6	6,3
1,769	-11,9	9,6
1,7695	-13,3	11,5
1,77	-16,5	11,8
1,7705	-21,3	11,6
1,771	-26,9	11,7
1,7715	-32,7	12,3
1,772	-37,5	13,1
1,7725	-40,5	13,8
1,773	-41,0	14,4
1,7735	-40,2	15,0
1,774	-40,4	15,1
1,7745	-42,9	14,4
1,775	-47,5	13,0
1,7755	-52,7	11,0
1,776	-57,4	8,3
1,7765	-61,2	5,2
1,777	-63,8	2,2
1,7775	-64,6	-0,1
1,778	-63,3	-1,3
1,7785	-59,8	-1,5
1,779	-54,9	-1,0
1,7795	-49,5	-0,1
1,78	-44,5	1,2
1,7805	-40,8	2,4
1,781	-39,3	3,0
1,7815	-40,3	2,9
1,782	-42,7	2,2
1,7825	-44,9	1,7
1,783	-46,3	2,0
1,7835	-46,6	3,4
1,784	-45,9	5,6
1,7845	-43,7	8,0
1,785	-39,8	10,2
1,7855	-34,5	11,8
1,786	-29,2	13,2
1,7865	-25,2	14,3
1,787	-23,2	15,2
1,7875	-22,8	15,7
1,788	-23,3	15,6
1,7885	-23,2	14,7
1,789	-21,2	13,0
1,7895	-16,3	11,3
1,79	-9,5	9,9
1,7905	-2,7	9,1
1,791	2,4	8,9
1,7915	5,3	8,8
1,792	6,3	8,8
1,7925	5,7	8,5
1,793	3,0	8,2
1,7935	-1,6	7,8
1,794	-7,4	7,4
1,7945	-13,1	7,0
1,795	-17,7	6,9
1,7955	-21,2	7,0
1,796	-24,5	7,6
1,7965	-28,1	8,7
1,797	-32,0	10,3
1,7975	-36,1	11,5
1,798	-40,6	11,7
1,7985	-44,8	10,8
1,799	-47,8	9,4
1,7995	-48,3	8,1
1,8	-45,7	7,0
1,8005	-40,3	6,2
1,801	-33,3	6,1
1,8015	-26,5	6,8
1,802	-21,8	7,9
1,8025	-20,5	9,1
1,803	-23,0	9,8
1,8035	-28,1	9,8
1,804	-34,3	9,3
1,8045	-40,5	8,4
1,805	-46,4	7,2
1,8055	-51,3	6,1
1,806	-53,8	5,8
1,8065	-53,3	6,7
1,807	-50,7	8,2
1,8075	-47,7	9,5
1,808	-45,6	10,4
1,8085	-44,8	11,0
1,809	-44,8	11,6
1,8095	-44,7	12,0
1,81	-43,9	12,0
1,8105	-41,6	11,6
1,811	-37,1	11,4
1,8115	-30,5	11,5
1,812	-22,9	11,9
1,8125	-15,8	12,3
1,813	-10,4	12,3
1,8135	-7,1	12,3
1,814	-5,8	12,0
1,8145	-6,8	11,6
1,815	-9,5	10,9
1,8155	-12,4	10,4
1,816	-14,1	10,3
1,8165	-14,1	10,9
1,817	-13,1	12,3
1,8175	-11,7	14,2
1,818	-9,9	16,1
1,8185	-7,8	17,7
1,819	-5,9	18,8
1,8195	-5,4	18,9
1,82	-7,4	18,4
1,8205	-12,1	17,6
1,821	-18,9	16,7
1,8215	-27,1	15,7
1,822	-35,6	14,4
1,8225	-42,9	13,1
1,823	-47,6	12,2
1,8235	-49,6	11,7
1,824	-49,8	11,3
1,8245	-49,4	10,8
1,825	-48,7	10,4
1,8255	-47,9	9,9
1,826	-47,6	9,3
1,8265	-47,7	8,5
1,827	-47,7	7,5
1,8275	-46,3	6,7
1,828	-43,3	6,6
1,8285	-39,2	7,3
1,829	-35,0	8,2
1,8295	-31,2	9,1
1,83	-27,8	9,9
1,8305	-25,3	10,3
1,831	-24,7	9,9
1,8315	-26,2	8,8
1,832	-28,8	7,2
1,8325	-30,9	5,9
1,833	-31,4	5,1
1,8335	-30,0	4,5
1,834	-27,3	4,1
1,8345	-23,3	3,7
1,835	-18,6	3,3
1,8355	-13,4	2,9
1,836	-9,1	2,2
1,8365	-6,8	1,1
1,837	-6,6	-0,2
1,8375	-7,8	-0,9
1,838	-9,6	-1,0
1,8385	-11,5	-0,7
1,839	-12,8	-0,4
1,8395	-12,5	-0,2
1,84	-10,6	0,3
1,8405	-8,0	1,3
1,841	-6,4	2,9
1,8415	-6,3	4,9
1,842	-7,4	6,9
1,8425	-9,7	8,3
1,843	-12,8	8,9
1,8435	-16,3	9,0
1,844	-19,4	9,3
1,8445	-21,2	10,5
1,845	-21,6	12,7
1,8455	-21,6	15,6
1,846	-22,0	18,3
1,8465	-22,9	20,1
1,847	-24,2	20,7
1,8475	-26,2	19,9
1,848	-30,1	18,0
1,8485	-36,7	15,7
1,849	-45,1	13,5
1,8495	-54,0	12,0
1,85	-61,3	11,4
1,8505	-65,8	11,5
1,851	-66,6	11,9
1,8515	-63,8	12,4
1,852	-58,7	12,9
1,8525	-53,6	13,1
1,853	-50,8	12,8
1,8535	-51,3	11,8
1,854	-54,1	9,9
1,8545	-58,0	7,8
1,855	-61,6	5,8
1,8555	-64,1	4,5
1,856	-64,7	4,5
1,8565	-63,0	5,7
1,857	-59,3	7,4
1,8575	-54,8	8,7
1,858	-50,3	9,0
1,8585	-45,9	8,3
1,859	-41,6	7,0
1,8595	-37,5	5,5
1,86	-33,9	4,0
1,8605	-31,0	2,9
1,861	-28,6	2,7
1,8615	-26,1	3,6
1,862	-23,6	5,2
1,8625	-21,5	6,8
1,863	-20,2	7,7
1,8635	-19,8	7,8
1,864	-20,2	7,2
1,8645	-21,6	5,7
1,865	-23,3	3,9
1,8655	-24,3	2,7
1,866	-23,8	2,4
1,8665	-22,4	3,1
1,867	-21,3	4,3
1,8675	-21,0	5,9
1,868	-21,2	7,5
1,8685	-21,3	8,8
1,869	-21,4	9,3
1,8695	-22,3	8,5
1,87	-23,9	6,8
1,8705	-25,8	4,7
1,871	-27,4	3,0
1,8715	-28,6	1,9
1,872	-29,3	1,2
1,8725	-29,1	0,9
1,873	-27,1	1,3
1,8735	-24,0	2,3
1,874	-21,3	3,9
1,8745	-20,3	6,0
1,875	-20,9	8,1
1,8755	-22,6	9,8
1,876	-25,0	10,6
1,8765	-28,2	10,4
1,877	-32,1	9,8
1,8775	-35,7	9,4
1,878	-37,7	9,6
1,8785	-37,2	10,4
1,879	-34,7	11,3
1,8795	-31,3	12,1
1,88	-27,8	12,7
1,8805	-25,0	12,9
1,881	-24,2	12,5
1,8815	-26,0	11,4
1,882	-29,8	9,9
1,8825	-33,8	8,4
1,883	-36,3	7,3
1,8835	-36,6	6,3
1,884	-34,0	5,8
1,8845	-28,6	6,2
1,885	-21,0	7,6
1,8855	-12,6	10,0
1,886	-5,4	12,3
1,8865	-1,1	13,6
1,887	-0,3	13,4
1,8875	-2,4	12,2
1,888	-6,2	10,7
1,8885	-10,3	9,5
1,889	-13,3	9,0
1,8895	-13,8	9,2
1,89	-11,3	9,8
1,8905	-7,0	10,3
1,891	-2,8	10,7
1,8915	0,3	10,9
1,892	2,3	10,7
1,8925	3,1	9,6
1,893	2,9	7,6
1,8935	1,6	5,4
1,894	-0,6	4,1
1,8945	-2,5	4,1
1,895	-3,2	5,1
1,8955	-2,3	6,5
1,896	-0,2	7,8
1,8965	2,7	9,0
1,897	5,7	10,2
1,8975	7,6	10,8
1,898	7,3	10,6
1,8985	4,8	9,6
1,899	0,8	8,9
1,8995	-3,5	9,4
1,9	-7,5	11,4
1,9005	-10,9	14,3
1,901	-13,3	17,6
1,9015	-14,2	21,0
1,902	-13,8	24,0
1,9025	-12,7	26,0
1,903	-12,3	26,6
1,9035	-12,8	25,9
1,904	-14,4	24,6
1,9045	-16,5	23,1
1,905	-19,0	21,6
1,9055	-22,0	20,4
1,906	-25,1	19,7
1,9065	-27,8	19,5
1,907	-29,9	19,7
1,9075	-31,9	19,7
1,908	-34,3	19,4
1,9085	-37,1	18,5
1,909	-40,3	17,0
1,9095	-43,6	15,3
1,91	-46,7	13,9
1,9105	-49,0	13,2
1,911	-49,7	13,1
1,9115	-47,7	13,6
1,912	-42,8	14,2
1,9125	-35,7	14,8
1,913	-27,4	15,1
1,9135	-18,6	15,0
1,914	-10,6	14,4
1,9145	-4,5	13,2
1,915	-1,0	11,3
1,9155	0,6	9,3
1,916	1,5	7,7
1,9165	2,5	6,7
1,917	3,7	6,5
1,9175	5,4	6,9
1,918	7,8	7,9
1,9185	10,7	9,3
1,919	13,1	10,9
1,9195	13,4	12,3
1,92	10,8	13,3
1,9205	5,5	13,8
1,921	-1,2	14,1
1,9215	-7,9	14,0
1,922	-13,1	14,0
1,9225	-15,5	14,7
1,923	-14,8	16,3
1,9235	-12,3	18,5
1,924	-9,8	20,4
1,9245	-8,8	21,4
1,925	-9,8	21,3
1,9255	-12,6	20,3
1,926	-16,8	18,8
1,9265	-21,7	17,1
1,927	-26,4	15,8
1,9275	-29,6	15,2
1,928	-30,2	15,7
1,9285	-27,8	17,2
1,929	-23,2	19,3
1,9295	-18,0	21,6
1,93	-13,4	23,8
1,9305	-10,3	25,5
1,931	-9,3	26,2
1,9315	-10,4	25,5
1,932	-12,9	23,9
1,9325	-15,6	22,2
1,933	-17,8	21,1
1,9335	-19,1	20,6
1,934	-19,3	20,8
1,9345	-18,8	21,5
1,935	-18,4	22,8
1,9355	-19,6	24,2
1,936	-23,4	25,0
1,9365	-30,3	24,7
1,937	-40,3	23,5
1,9375	-52,1	21,8
1,938	-64,3	20,1
1,9385	-74,8	18,5
1,939	-81,5	17,1
1,9395	-82,6	16,4
1,94	-77,8	16,0
1,9405	-69,1	15,7
1,941	-59,3	14,9
1,9415	-50,4	13,6
1,942	-43,0	12,3
1,9425	-37,3	11,2
1,943	-33,4	10,2
1,9435	-31,4	9,1
1,944	-30,5	8,0
1,9445	-29,2	7,3
1,945	-26,4	7,2
1,9455	-22,1	8,1
1,946	-17,2	10,0
1,9465	-12,5	12,8
1,947	-9,5	15,8
1,9475	-9,4	18,1
1,948	-12,7	19,4
1,9485	-17,9	19,9
1,949	-22,6	20,2
1,9495	-25,0	20,7
1,95	-24,7	21,2
1,9505	-21,7	21,5
1,951	-16,0	22,1
1,9515	-8,4	23,0
1,952	0,3	23,8
1,9525	8,5	24,3
1,953	15,0	24,2
1,9535	18,8	23,7
1,954	19,7	22,7
1,9545	18,5	21,2
1,955	16,3	19,4
1,9555	14,2	17,5
1,956	13,5	16,0
1,9565	14,8	15,3
1,957	17,4	15,5
1,9575	19,7	16,4
1,958	20,4	17,2
1,9585	19,5	17,5
1,959	17,4	17,1
1,9595	14,6	15,9
1,96	11,2	14,4
1,9605	7,5	13,4
1,961	4,5	13,7
1,9615	3,0	15,6
1,962	3,2	18,3
1,9625	4,0	20,1
1,963	4,8	20,0
1,9635	5,5	18,2
1,964	6,5	15,7
1,9645	7,3	13,4
1,965	7,8	11,8
1,9655	8,3	11,1
1,966	9,3	11,3
1,9665	10,8	12,1
1,967	12,5	13,3
1,9675	14,3	14,8
1,968	16,6	16,9
1,9685	19,1	19,6
1,969	20,9	22,3
1,9695	20,8	24,3
1,97	18,0	24,7
1,9705	12,3	23,4
1,971	4,4	20,9
1,9715	-4,2	17,8
1,972	-11,3	15,5
1,9725	-15,0	14,6
1,973	-15,1	15,3
1,9735	-12,8	16,8
1,974	-10,3	18,1
1,9745	-9,2	18,7
1,975	-9,8	18,8
1,9755	-11,8	19,2
1,976	-15,1	19,8
1,9765	-19,1	20,7
1,977	-23,5	21,5
1,9775	-27,1	22,4
1,978	-28,8	23,5
1,9785	-28,3	24,5
1,979	-26,0	25,0
1,9795	-22,8	24,9
1,98	-19,5	24,4
1,9805	-16,6	23,8
1,981	-15,1	22,8
1,9815	-15,7	21,0
1,982	-18,3	18,7
1,9825	-21,4	16,7
1,983	-23,6	15,4
1,9835	-24,1	14,9
1,984	-22,6	14,9
1,9845	-18,9	14,9
1,985	-13,3	14,9
1,9855	-7,0	14,7
1,986	-1,3	14,2
1,9865	2,5	13,4
1,987	3,8	12,4
1,9875	3,2	11,7
1,988	1,1	11,3
1,9885	-1,5	11,3
1,989	-3,6	11,7
1,9895	-4,1	12,2
1,99	-3,3	12,9
1,9905	-2,5	13,5
1,991	-3,0	14,0
1,9915	-5,1	14,4
1,992	-7,8	14,8
1,9925	-10,9	15,2
1,993	-13,9	15,5
1,9935	-16,8	15,8
1,994	-18,8	15,8
1,9945	-18,9	15,3
1,995	-16,7	14,6
1,9955	-12,7	14,0
1,996	-8,0	13,9
1,9965	-3,4	14,4
1,997	0,5	15,3
1,9975	2,6	16,2
1,998	1,2	16,3
1,9985	-4,1	15,9
1,999	-12,2	15,4
1,9995	-21,1	15,2
2	-29,3	15,1
2,0005	-36,1	15,1
2,001	-40,4	15,4
2,0015	-41,7	16,3
2,002	-39,6	17,4
2,0025	-35,4	18,6
2,003	-30,6	19,3
2,0035	-26,5	19,1
2,004	-23,8	18,5
2,0045	-22,8	17,6
2,005	-23,4	16,6
2,0055	-24,8	15,7
2,006	-25,1	15,4
2,0065	-23,2	16,0
2,007	-19,2	16,9
2,0075	-14,3	17,5
2,008	-9,7	17,5
2,0085	-5,5	17,2
2,009	-1,9	16,5
2,0095	0,8	15,5
2,01	2,3	14,3
2,0105	2,8	13,2
2,011	2,8	12,5
2,0115	2,8	12,5
2,012	3,3	13,1
2,0125	4,5	14,0
2,013	6,4	14,7
2,0135	9,3	14,9
2,014	12,6	14,7
2,0145	15,1	13,9
2,015	15,8	12,8
2,0155	15,2	11,8
2,016	13,9	11,4
2,0165	12,5	11,6
2,017	10,8	11,7
2,0175	8,9	11,6
2,018	7,4	11,7
2,0185	6,9	12,3
2,019	7,2	13,8
2,0195	6,6	15,4
2,02	3,6	16,4
2,0205	-2,5	16,7
2,021	-11,0	16,5
2,0215	-21,2	16,0
2,022	-31,7	15,7
2,0225	-40,4	15,6
2,023	-45,6	16,0
2,0235	-47,3	16,6
2,024	-46,9	17,0
2,0245	-45,8	16,8
2,025	-44,7	16,3
2,0255	-43,2	15,6
2,026	-41,2	14,8
2,0265	-38,3	13,6
2,027	-34,3	11,9
2,0275	-29,0	10,1
2,028	-22,2	8,9
2,0285	-14,3	8,7
2,029	-6,1	9,4
2,0295	1,2	10,8
2,03	6,9	12,4
2,0305	10,6	13,9
2,031	11,4	14,8
2,0315	9,0	15,3
2,032	4,8	15,7
2,0325	0,9	16,2
2,033	-0,8	16,7
2,0335	-0,3	17,0
2,034	1,6	17,3
2,0345	3,8	17,7
2,035	5,8	18,3
2,0355	7,8	18,7
2,036	9,3	18,6
2,0365	9,2	18,2
2,037	6,8	17,7
2,0375	2,3	17,1
2,038	-3,4	16,3
2,0385	-9,3	14,8
2,039	-14,2	13,0
2,0395	-16,8	11,8
2,04	-16,9	11,7
2,0405	-15,4	12,6
2,041	-13,6	13,6
2,0415	-12,0	14,3
2,042	-10,2	14,5
2,0425	-8,4	14,4
2,043	-7,0	14,2
2,0435	-6,4	14,0
2,044	-6,8	14,1
2,0445	-7,7	14,7
2,045	-8,3	15,8
2,0455	-8,1	17,4
2,046	-7,1	19,3
2,0465	-5,2	21,3
2,047	-3,2	23,4
2,0475	-2,7	25,3
2,048	-4,9	26,5
2,0485	-9,7	26,6
2,049	-15,2	25,8
2,0495	-19,5	24,7
2,05	-21,5	23,9
2,0505	-21,0	23,9
2,051	-18,1	24,5
2,0515	-13,5	25,4
2,052	-8,6	26,4
2,0525	-4,8	27,3
2,053	-2,8	27,6
2,0535	-2,6	27,3
2,054	-3,3	26,7
2,0545	-4,8	25,9
2,055	-7,4	24,8
2,0555	-11,1	23,3
2,056	-14,6	21,6
2,0565	-16,0	20,4
2,057	-14,4	19,6
2,0575	-10,8	18,8
2,058	-6,6	18,0
2,0585	-3,3	17,3
2,059	-1,8	16,6
2,0595	-2,9	15,7
2,06	-6,3	14,5
2,0605	-10,9	13,2
2,061	-15,0	12,0
2,0615	-16,9	11,2
2,062	-16,4	11,0
2,0625	-13,9	11,1
2,063	-10,4	11,6
2,0635	-7,0	12,2
2,064	-5,2	12,9
2,0645	-6,5	13,7
2,065	-10,7	14,2
2,0655	-16,4	14,3
2,066	-22,3	14,1
2,0665	-27,5	13,9
2,067	-31,9	14,1
2,0675	-34,5	15,4
2,068	-34,5	17,9
2,0685	-31,6	21,2
2,069	-27,0	24,2
2,0695	-22,3	26,1
2,07	-18,8	26,2
2,0705	-17,3	24,8
2,071	-17,5	22,6
2,0715	-18,9	20,2
2,072	-20,8	18,3
2,0725	-22,5	16,9
2,073	-22,9	16,2
2,0735	-22,2	15,8
2,074	-21,3	15,4
2,0745	-21,2	14,8
2,075	-21,9	13,8
2,0755	-23,4	12,7
2,076	-25,9	11,7
2,0765	-29,4	10,8
2,077	-33,3	10,1
2,0775	-35,8	9,7
2,078	-35,0	9,6
2,0785	-29,9	9,9
2,079	-21,4	10,3
2,0795	-11,3	10,9
2,08	-1,1	11,6
2,0805	7,9	12,1
2,081	14,5	12,3
2,0815	17,8	12,4
2,082	18,3	12,7
2,0825	17,6	13,6
2,083	17,0	14,9
2,0835	16,9	16,2
2,084	17,3	17,3
2,0845	18,3	18,6
2,085	19,5	20,1
2,0855	20,5	21,6
2,086	20,5	22,7
2,0865	19,1	22,7
2,087	16,2	21,8
2,0875	12,2	20,5
2,088	7,7	19,2
2,0885	3,1	17,9
2,089	-1,0	16,7
2,0895	-3,8	15,7
2,09	-4,7	15,1
2,0905	-4,1	15,3
2,091	-3,5	16,3
2,0915	-3,9	17,8
2,092	-5,6	19,2
2,0925	-8,4	20,3
2,093	-12,6	20,6
2,0935	-18,0	20,3
2,094	-23,8	19,6
2,0945	-28,6	18,7
2,095	-31,3	18,2
2,0955	-31,4	18,2
2,096	-29,3	18,9
2,0965	-25,5	20,2
2,097	-21,3	21,6
2,0975	-18,3	22,6
2,098	-17,5	22,8
2,0985	-18,5	22,4
2,099	-19,7	21,9
2,0995	-19,8	21,3
2,1	-18,5	20,8
2,1005	-16,3	20,4
2,101	-13,7	20,4
2,1015	-10,8	20,5
2,102	-7,5	20,5
2,1025	-3,9	19,8
2,103	-1,0	18,4
2,1035	0,1	16,9
2,104	-1,0	15,6
2,1045	-3,7	15,2
2,105	-7,5	15,6
2,1055	-11,7	16,3
2,106	-15,2	16,8
2,1065	-17,1	17,1
2,107	-17,7	17,4
2,1075	-18,0	17,7
2,108	-19,0	18,1
2,1085	-20,4	18,8
2,109	-21,5	19,7
2,1095	-21,8	20,6
2,11	-21,7	21,0
2,1105	-21,3	20,6
2,111	-20,3	19,6
2,1115	-17,9	18,3
2,112	-14,5	17,3
2,1125	-10,7	17,4
2,113	-7,2	18,7
2,1135	-4,4	20,7
2,114	-2,4	22,3
2,1145	-1,8	22,5
2,115	-2,3	21,2
2,1155	-2,5	19,4
2,116	-1,3	18,2
2,1165	1,5	17,8
2,117	5,1	17,9
2,1175	8,7	18,2
2,118	12,4	18,9
2,1185	16,3	20,0
2,119	20,4	21,4
2,1195	23,5	22,4
2,12	24,0	22,5
2,1205	21,2	21,5
2,121	15,7	19,3
2,1215	9,3	16,5
2,122	3,8	13,5
2,1225	0,5	11,2
2,123	0,1	10,2
2,1235	2,5	10,3
2,124	6,1	10,8
2,1245	9,2	11,1
2,125	11,1	10,7
2,1255	11,7	9,9
2,126	11,0	8,6
2,1265	8,9	7,0
2,127	5,9	5,2
2,1275	3,2	3,8
2,128	2,3	3,3
2,1285	3,7	3,6
2,129	6,6	4,7
2,1295	9,8	6,3
2,13	12,3	8,5
2,1305	13,6	10,6
2,131	13,0	11,9
2,1315	10,2	12,1
2,132	5,9	11,5
2,1325	1,6	10,7
2,133	-1,8	10,2
2,1335	-4,3	10,2
2,134	-6,7	10,7
2,1345	-8,7	11,9
2,135	-9,8	13,6
2,1355	-10,0	15,5
2,136	-9,8	16,5
2,1365	-10,0	16,4
2,137	-11,1	15,3
2,1375	-12,7	13,9
2,138	-14,3	12,8
2,1385	-15,9	12,2
2,139	-17,5	11,5
2,1395	-18,5	10,8
2,14	-18,4	10,3
2,1405	-17,7	9,7
2,141	-16,8	8,7
2,1415	-15,8	7,4
2,142	-14,8	6,3
2,1425	-14,3	5,9
2,143	-15,0	6,3
2,1435	-16,7	7,1
2,144	-18,1	7,8
2,1445	-17,2	8,1
2,145	-13,1	8,3
2,1455	-6,5	8,5
2,146	1,0	8,9
2,1465	8,1	9,5
2,147	13,7	10,3
2,1475	16,9	11,0
2,148	17,2	11,1
2,1485	14,7	10,3
2,149	10,8	9,2
2,1495	7,5	8,2
2,15	5,3	7,9
2,1505	4,3	8,5
2,151	4,3	10,0
2,1515	5,2	12,6
2,152	7,0	15,8
2,1525	9,3	18,2
2,153	11,3	18,9
2,1535	12,7	17,6
2,154	13,3	14,9
2,1545	13,5	11,8
2,155	13,2	9,0
2,1555	12,7	7,2
2,156	12,6	6,5
2,1565	13,7	7,2
2,157	16,0	8,6
2,1575	18,7	9,9
2,158	20,8	10,4
2,1585	22,0	9,9
2,159	22,1	8,7
2,1595	20,8	6,9
2,16	18,3	5,0
2,1605	15,1	3,2
2,161	12,2	2,1
2,1615	10,3	1,7
2,162	9,5	2,3
2,1625	8,8	3,6
2,163	7,6	5,2
2,1635	5,7	7,2
2,164	3,2	9,2
2,1645	-0,2	10,7
2,165	-4,1	11,2
2,1655	-7,5	10,6
2,166	-9,5	9,5
2,1665	-10,0	8,6
2,167	-10,0	8,2
2,1675	-9,6	8,1
2,168	-8,7	8,5
2,1685	-7,0	9,3
2,169	-5,1	10,9
2,1695	-4,3	12,7
2,17	-5,6	14,2
2,1705	-9,9	14,9
2,171	-16,9	14,5
2,1715	-25,5	13,2
2,172	-34,4	11,0
2,1725	-41,8	8,9
2,173	-46,2	7,7
2,1735	-46,8	8,0
2,174	-44,7	9,7
2,1745	-41,3	11,9
2,175	-38,0	14,3
2,1755	-35,2	16,1
2,176	-33,4	16,9
2,1765	-32,7	16,3
2,177	-33,0	14,5
2,1775	-33,5	12,1
2,178	-33,0	10,1
2,1785	-30,9	9,1
2,179	-27,5	9,3
2,1795	-23,8	10,0
2,18	-20,7	11,1
2,1805	-18,9	12,1
2,181	-19,0	12,8
2,1815	-21,4	12,8
2,182	-25,6	12,7
2,1825	-30,0	13,1
2,183	-33,7	14,2
2,1835	-36,3	15,6
2,184	-37,7	17,0
2,1845	-37,4	18,8
2,185	-34,9	21,0
2,1855	-30,3	23,5
2,186	-24,8	25,4
2,1865	-20,7	25,9
2,187	-18,7	25,1
2,1875	-18,6	23,6
2,188	-19,7	21,9
2,1885	-20,9	20,3
2,189	-21,4	19,2
2,1895	-20,1	18,7
2,19	-16,8	19,0
2,1905	-12,7	19,7
2,191	-9,3	20,5
2,1915	-7,9	21,2
2,192	-8,7	21,6
2,1925	-11,3	21,5
2,193	-15,2	20,6
2,1935	-19,7	18,8
2,194	-23,3	16,4
2,1945	-24,2	14,4
2,195	-21,2	13,4
2,1955	-14,5	13,8
2,196	-5,8	15,2
2,1965	2,6	17,2
2,197	9,1	19,1
2,1975	12,5	20,3
2,198	12,4	20,4
2,1985	9,6	19,4
2,199	5,8	18,1
2,1995	2,7	17,2
2,2	0,8	16,8
2,2005	0,1	16,5
2,201	0,6	15,9
2,2015	2,5	15,3
2,202	5,5	14,5
2,2025	8,6	13,7
2,203	10,2	12,6
2,2035	9,7	11,2
2,204	7,2	9,6
2,2045	3,4	7,8
2,205	-1,2	6,0
2,2055	-6,1	4,5
2,206	-9,9	3,5
2,2065	-11,4	3,5
2,207	-10,5	4,2
2,2075	-8,3	5,6
2,208	-6,1	7,5
2,2085	-4,8	9,8
2,209	-5,2	12,1
2,2095	-7,8	13,7
2,21	-12,6	13,8
2,2105	-19,1	12,1
2,211	-25,8	9,5
2,2115	-30,6	7,2
2,212	-32,6	6,0
2,2125	-31,8	6,1
2,213	-29,2	7,3
2,2135	-25,5	9,1
2,214	-21,6	11,0
2,2145	-19,0	12,4
2,215	-18,5	12,6
2,2155	-19,6	11,8
2,216	-21,3	10,4
2,2165	-22,6	9,0
2,217	-23,1	8,0
2,2175	-22,3	7,6
2,218	-20,0	8,1
2,2185	-17,0	9,5
2,219	-14,5	11,3
2,2195	-13,6	12,7
2,22	-14,9	13,2
2,2205	-17,8	12,7
2,221	-21,8	11,7
2,2215	-26,2	10,8
2,222	-30,6	9,8
2,2225	-34,3	9,1
2,223	-36,6	8,9
2,2235	-37,3	9,3
2,224	-37,6	10,3
2,2245	-39,4	11,5
2,225	-43,7	12,6
2,2255	-50,3	13,3
2,226	-58,8	13,2
2,2265	-69,6	12,1
2,227	-82,7	10,3
2,2275	-96,3	8,2
2,228	-107,1	6,4
2,2285	-112,3	5,4
2,229	-111,4	5,1
2,2295	-105,1	5,3
2,23	-94,5	5,8
2,2305	-81,2	6,1
2,231	-67,1	5,9
2,2315	-54,1	5,0
2,232	-42,4	3,8
2,2325	-31,4	2,8
2,233	-20,5	2,5
2,2335	-10,4	2,8
2,234	-1,7	3,7
2,2345	5,6	5,0
2,235	11,4	6,6
2,2355	15,7	8,3
2,236	18,0	10,1
2,2365	17,9	11,8
2,237	15,8	13,2
2,2375	12,5	14,4
2,238	9,5	15,1
2,2385	7,8	15,3
2,239	8,3	15,5
2,2395	10,9	16,3
2,24	15,0	18,4
2,2405	19,4	21,3
2,241	23,0	23,6
2,2415	25,6	24,2
2,242	27,8	22,9
2,2425	29,5	20,3
2,243	30,1	17,5
2,2435	29,3	14,9
2,244	27,2	13,0
2,2445	25,2	12,0
2,245	24,3	11,8
2,2455	24,8	12,3
2,246	26,3	12,7
2,2465	28,1	12,7
2,247	29,7	12,3
2,2475	30,3	11,4
2,248	28,8	10,2
2,2485	25,3	8,5
2,249	20,3	6,7
2,2495	15,2	5,2
2,25	10,5	4,3
2,2505	6,0	4,3
2,251	2,3	5,4
2,2515	-0,5	7,4
2,252	-2,1	10,2
2,2525	-3,3	13,3
2,253	-5,4	16,3
2,2535	-9,1	18,3
2,254	-14,6	18,7
2,2545	-21,0	17,6
2,255	-27,8	15,7
2,2555	-34,1	13,6
2,256	-39,0	11,7
2,2565	-41,5	10,6
2,257	-41,8	10,2
2,2575	-40,5	10,2
2,258	-38,6	10,1
2,2585	-36,3	9,5
2,259	-33,9	8,3
2,2595	-32,1	6,3
2,26	-31,4	3,8
2,2605	-31,8	1,3
2,261	-32,4	-0,5
2,2615	-32,3	-0,9
2,262	-30,7	0,1
2,2625	-27,7	1,8
2,263	-23,8	3,8
2,2635	-19,8	5,2
2,264	-16,3	6,0
2,2645	-14,3	6,1
2,265	-14,0	5,3
2,2655	-14,4	4,0
2,266	-14,3	2,8
2,2665	-12,9	2,0
2,267	-10,7	1,9
2,2675	-7,8	2,6
2,268	-4,2	4,1
2,2685	0,5	6,1
2,269	5,8	8,0
2,2695	10,6	9,2
2,27	13,8	9,2
2,2705	14,9	8,3
2,271	14,6	6,7
2,2715	13,5	5,2
2,272	12,2	3,9
2,2725	11,1	2,8
2,273	11,2	1,9
2,2735	12,7	1,2
2,274	14,9	0,6
2,2745	16,2	0,3
2,275	15,5	0,3
2,2755	12,8	0,7
2,276	8,4	1,2
2,2765	3,0	1,3
2,277	-2,1	0,7
2,2775	-5,8	-0,2
2,278	-7,1	-0,7
2,2785	-5,9	0,0
2,279	-3,1	1,6
2,2795	0,1	3,5
2,28	2,8	5,3
2,2805	4,4	6,6
2,281	4,2	7,2
2,2815	1,4	6,8
2,282	-3,3	5,5
2,2825	-8,3	3,4
2,283	-11,7	1,0
2,2835	-12,9	-1,3
2,284	-12,5	-3,0
2,2845	-10,9	-3,4
2,285	-8,5	-2,7
2,2855	-5,6	-1,5
2,286	-3,2	-0,5
2,2865	-2,3	-0,4
2,287	-3,1	-1,3
2,2875	-4,8	-3,0
2,288	-6,8	-4,7
2,2885	-9,0	-6,1
2,289	-11,2	-6,8
2,2895	-12,0	-6,3
2,29	-10,6	-4,7
2,2905	-7,5	-2,4
2,291	-4,5	-0,5
2,2915	-3,1	0,3
2,292	-3,8	0,1
2,2925	-6,3	-0,8
2,293	-10,4	-2,0
2,2935	-15,0	-3,1
2,294	-19,1	-3,4
2,2945	-21,4	-2,5
2,295	-21,3	-0,4
2,2955	-19,5	2,3
2,296	-16,9	4,8
2,2965	-14,1	6,5
2,297	-11,3	7,0
2,2975	-8,5	6,6
2,298	-6,5	5,2
2,2985	-6,1	3,1
2,299	-7,1	0,9
2,2995	-8,6	-1,0
2,3	-9,6	-2,2
2,3005	-9,6	-2,8
2,301	-8,2	-2,9
2,3015	-5,2	-2,7
2,302	-1,3	-2,5
2,3025	2,4	-2,5
2,303	4,6	-3,0
2,3035	4,7	-4,0
2,304	3,3	-5,2
2,3045	1,2	-6,3
2,305	-1,5	-7,1
2,3055	-4,5	-8,0
2,306	-6,8	-9,1
2,3065	-7,1	-9,8
2,307	-4,6	-9,9
2,3075	-0,7	-9,5
2,308	2,4	-8,8
2,3085	2,6	-8,0
2,309	-1,1	-7,2
2,3095	-8,4	-6,8
2,31	-18,0	-7,2
2,3105	-28,3	-8,3
2,311	-38,0	-9,8
2,3115	-46,2	-10,9
2,312	-52,9	-11,3
2,3125	-57,9	-10,8
2,313	-60,8	-9,0
2,3135	-61,5	-6,1
2,314	-60,5	-2,3
2,3145	-59,3	1,2
2,315	-59,4	3,4
2,3155	-61,2	3,5
2,316	-64,3	1,8
2,3165	-68,3	-1,1
2,317	-72,6	-4,5
2,3175	-75,6	-7,4
2,318	-76,0	-9,1
2,3185	-73,3	-9,1
2,319	-68,0	-8,2
2,3195	-61,9	-7,4
2,32	-56,7	-7,8
2,3205	-53,2	-8,9
2,321	-51,4	-10,0
2,3215	-50,8	-10,4
2,322	-51,1	-10,1
2,3225	-51,3	-9,5
2,323	-49,8	-8,8
2,3235	-45,4	-7,9
2,324	-38,8	-6,9
2,3245	-32,2	-6,0
2,325	-27,7	-5,1
2,3255	-25,8	-4,3
2,326	-25,9	-4,0
2,3265	-27,1	-4,5
2,327	-28,7	-5,8
2,3275	-30,4	-7,4
2,328	-30,8	-8,2
2,3285	-28,4	-7,9
2,329	-22,1	-7,0
2,3295	-12,0	-5,6
2,33	0,6	-4,0
2,3305	13,5	-1,9
2,331	24,3	0,2
2,3315	30,9	1,6
2,332	33,1	1,8
2,3325	31,8	0,6
2,333	28,5	-1,5
2,3335	24,4	-4,0
2,334	20,3	-6,0
2,3345	17,4	-6,8
2,335	16,0	-6,4
2,3355	16,4	-5,4
2,336	17,7	-4,6
2,3365	18,4	-4,3
2,337	17,5	-4,8
2,3375	14,8	-5,7
2,338	10,6	-6,5
2,3385	5,5	-7,3
2,339	0,4	-8,0
2,3395	-3,3	-8,6
2,34	-4,7	-9,2
2,3405	-3,4	-9,9
2,341	-0,3	-10,9
2,3415	3,2	-11,9
2,342	6,0	-12,6
2,3425	7,2	-13,0
2,343	5,9	-13,4
2,3435	2,1	-14,1
2,344	-3,3	-15,2
2,3445	-7,9	-16,1
2,345	-10,0	-16,4
2,3455	-9,4	-16,2
2,346	-7,2	-15,3
2,3465	-4,1	-13,8
2,347	-0,7	-11,8
2,3475	2,4	-9,6
2,348	3,9	-7,9
2,3485	3,4	-7,2
2,349	1,7	-7,3
2,3495	0,3	-7,5
2,35	0,3	-7,7
2,3505	1,3	-8,1
2,351	2,8	-8,6
2,3515	4,9	-8,9
2,352	7,4	-8,5
2,3525	9,7	-7,6
2,353	10,6	-6,5
2,3535	9,3	-5,9
2,354	6,1	-6,1
2,3545	2,0	-7,0
2,355	-2,3	-8,5
2,3555	-6,5	-9,8
2,356	-9,8	-10,1
2,3565	-11,5	-9,0
2,357	-11,5	-6,7
2,3575	-10,7	-4,0
2,358	-9,8	-1,5
2,3585	-9,2	0,4
2,359	-8,8	1,4
2,3595	-9,3	1,3
2,36	-10,7	0,3
2,3605	-13,1	-1,2
2,361	-15,4	-2,6
2,3615	-16,3	-3,3
2,362	-15,3	-3,3
2,3625	-12,4	-2,6
2,363	-8,7	-1,6
2,3635	-4,9	-0,6
2,364	-1,6	0,1
2,3645	0,3	0,2
2,365	0,2	-0,3
2,3655	-1,8	-1,3
2,366	-4,4	-1,9
2,3665	-6,7	-2,0
2,367	-8,5	-1,7
2,3675	-9,6	-1,4
2,368	-9,7	-1,2
2,3685	-8,4	-0,9
2,369	-5,9	-0,8
2,3695	-3,4	-0,9
2,37	-2,1	-1,8
2,3705	-2,5	-3,7
2,371	-4,2	-6,1
2,3715	-6,4	-8,7
2,372	-8,8	-10,8
2,3725	-10,8	-12,1
2,373	-11,6	-11,9
2,3735	-10,9	-10,3
2,374	-9,6	-7,8
2,3745	-9,0	-5,3
2,375	-9,7	-3,5
2,3755	-11,4	-2,4
2,376	-14,0	-2,3
2,3765	-17,4	-2,8
2,377	-21,6	-3,6
2,3775	-25,8	-4,4
2,378	-28,9	-4,7
2,3785	-30,1	-4,4
2,379	-29,5	-3,6
2,3795	-27,6	-3,0
2,38	-25,1	-2,9
2,3805	-22,2	-3,3
2,381	-19,9	-4,4
2,3815	-19,0	-6,1
2,382	-19,2	-8,5
2,3825	-19,8	-10,9
2,383	-20,2	-13,0
2,3835	-20,0	-14,4
2,384	-19,6	-15,4
2,3845	-18,6	-15,8
2,385	-16,8	-15,3
2,3855	-14,2	-14,1
2,386	-11,6	-12,6
2,3865	-9,8	-11,6
2,387	-9,1	-11,5
2,3875	-9,4	-11,9
2,388	-10,1	-12,4
2,3885	-10,7	-12,7
2,389	-10,9	-13,2
2,3895	-9,9	-13,8
2,39	-7,2	-14,1
2,3905	-3,4	-14,0
2,391	0,0	-13,8
2,3915	1,5	-13,7
2,392	0,8	-13,7
2,3925	-1,8	-13,9
2,393	-6,2	-14,3
2,3935	-11,9	-14,9
2,394	-18,3	-15,6
2,3945	-23,9	-15,5
2,395	-27,6	-14,1
2,3955	-29,3	-11,3
2,396	-30,2	-8,0
2,3965	-30,7	-5,5
2,397	-30,8	-3,8
2,3975	-30,5	-3,0
2,398	-30,3	-2,9
2,3985	-30,8	-3,4
2,399	-31,9	-4,3
2,3995	-32,7	-4,9
2,4	-32,8	-5,1
2,4005	-32,8	-4,8
2,401	-32,7	-4,3
2,4015	-32,4	-3,4
2,402	-31,5	-2,4
2,4025	-30,0	-1,7
2,403	-28,5	-1,8
2,4035	-27,7	-2,8
2,404	-27,6	-4,7
2,4045	-28,2	-6,9
2,405	-29,4	-9,1
2,4055	-30,6	-10,6
2,406	-30,0	-11,1
2,4065	-26,4	-10,3
2,407	-19,9	-8,4
2,4075	-12,5	-6,4
2,408	-5,9	-4,8
2,4085	-1,1	-3,9
2,409	2,1	-3,5
2,4095	3,4	-3,7
2,41	2,8	-4,7
2,4105	0,8	-6,1
2,411	-1,7	-7,3
2,4115	-3,4	-7,1
2,412	-4,1	-5,6
2,4125	-3,9	-3,3
2,413	-3,2	-1,0
2,4135	-2,1	0,8
2,414	-0,4	2,3
2,4145	1,2	3,3
2,415	1,9	3,6
2,4155	1,7	3,3
2,416	1,7	2,8
2,4165	2,8	2,6
2,417	5,0	2,8
2,4175	7,4	3,5
2,418	9,7	4,5
2,4185	11,8	6,0
2,419	13,8	7,9
2,4195	15,0	9,6
2,42	14,9	10,3
2,4205	13,9	9,8
2,421	12,6	8,3
2,4215	11,3	6,1
2,422	9,8	3,6
2,4225	7,8	1,2
2,423	5,5	-0,3
2,4235	3,7	-0,8
2,424	2,8	-0,5
2,4245	2,6	0,1
2,425	2,7	0,4
2,4255	2,8	0,5
2,426	2,4	0,1
2,4265	1,1	-0,8
2,427	-0,9	-1,8
2,4275	-3,3	-2,3
2,428	-5,1	-2,1
2,4285	-5,3	-0,7
2,429	-4,3	1,4
2,4295	-2,3	3,7
2,43	0,0	5,8
2,4305	2,0	7,4
2,431	2,5	8,5
2,4315	0,7	8,7
2,432	-2,8	8,0
2,4325	-5,8	6,4
2,433	-6,7	4,6
2,4335	-5,3	2,8
2,434	-2,9	1,5
2,4345	-0,3	1,2
2,435	2,5	1,7
2,4355	5,6	2,9
2,436	8,3	4,3
2,4365	9,6	5,4
2,437	9,0	6,2
2,4375	6,9	6,7
2,438	4,3	6,8
2,4385	1,9	6,2
2,439	-0,1	4,7
2,4395	-1,0	2,8
2,44	-0,1	1,8
2,4405	2,6	2,0
2,441	5,7	3,6
2,4415	7,7	5,7
2,442	8,2	7,3
2,4425	7,3	7,8
2,443	4,8	7,0
2,4435	0,7	5,3
2,444	-4,5	3,5
2,4445	-8,8	2,3
2,445	-10,2	2,0
2,4455	-7,7	2,2
2,446	-2,0	2,5
2,4465	5,2	2,9
2,447	12,3	3,3
2,4475	17,9	3,7
2,448	20,3	3,4
2,4485	19,3	2,0
2,449	16,1	-0,1
2,4495	13,0	-2,3
2,45	11,6	-3,7
2,4505	12,2	-4,4
2,451	14,4	-4,4
2,4515	17,6	-4,1
2,452	20,9	-3,3
2,4525	23,1	-2,5
2,453	23,1	-1,7
2,4535	20,4	-1,5
2,454	15,8	-1,9
2,4545	10,9	-2,9
2,455	6,6	-4,4
2,4555	3,0	-6,1
2,456	0,2	-7,3
2,4565	-1,6	-7,7
2,457	-2,5	-7,1
2,4575	-3,6	-5,9
2,458	-6,0	-4,8
2,4585	-9,5	-4,4
2,459	-13,5	-4,7
2,4595	-17,4	-5,7
2,46	-20,9	-7,0
2,4605	-23,9	-8,2
2,461	-26,3	-8,3
2,4615	-27,4	-6,9
2,462	-26,4	-4,0
2,4625	-23,2	-0,5
2,463	-18,5	2,9
2,4635	-14,0	5,3
2,464	-11,2	6,3
2,4645	-11,3	6,0
2,465	-14,4	4,8
2,4655	-19,0	3,5
2,466	-23,0	3,3
2,4665	-24,2	4,2
2,467	-21,8	6,1
2,4675	-16,1	8,5
2,468	-8,0	11,2
2,4685	0,9	14,0
2,469	9,4	16,7
2,4695	15,7	18,6
2,47	19,0	19,2
2,4705	19,3	18,8
2,471	17,3	17,8
2,4715	14,1	16,9
2,472	10,7	16,2
2,4725	8,3	15,6
2,473	8,2	15,5
2,4735	10,5	15,8
2,474	14,7	16,3
2,4745	19,2	16,3
2,475	22,4	15,9
2,4755	23,6	15,4
2,476	22,1	15,1
2,4765	17,8	14,5
2,477	11,9	13,4
2,4775	6,2	12,1
2,478	2,4	11,0
2,4785	1,3	10,6
2,479	2,2	10,9
2,4795	4,1	11,5
2,48	6,1	12,2
2,4805	7,4	12,9
2,481	6,8	13,4
2,4815	3,3	13,4
2,482	-2,8	12,7
2,4825	-9,3	11,3
2,483	-14,4	9,8
2,4835	-17,7	8,2
2,484	-19,4	6,8
2,4845	-19,0	5,9
2,485	-15,8	5,8
2,4855	-9,6	6,2
2,486	-1,6	6,8
2,4865	6,1	7,0
2,487	12,3	6,7
2,4875	16,3	5,9
2,488	17,8	5,0
2,4885	16,6	4,3
2,489	12,5	4,0
2,4895	6,4	4,3
2,49	-0,3	5,5
2,4905	-6,5	7,0
2,491	-12,0	8,4
2,4915	-17,0	9,2
2,492	-21,3	9,6
2,4925	-24,5	9,9
2,493	-25,9	10,2
2,4935	-25,4	10,4
2,494	-22,8	10,6
2,4945	-18,6	11,1
2,495	-13,1	11,9
2,4955	-7,1	12,9
2,496	-1,0	13,8
2,4965	4,7	14,7
2,497	9,8	15,4
2,4975	14,2	16,1
2,498	17,4	16,5
2,4985	19,3	16,4
2,499	20,4	16,1
2,4995	22,2	15,6
2,5	25,4	15,3
2,5005	29,6	15,3
2,501	34,5	15,8
2,5015	39,5	17,0
2,502	43,9	18,5
2,5025	46,7	20,0
2,503	46,6	20,9
2,5035	43,2	21,0
2,504	37,5	20,4
2,5045	31,0	19,6
2,505	24,8	18,4
2,5055	19,5	16,9
2,506	15,9	15,1
2,5065	14,6	13,8
2,507	15,5	13,2
2,5075	17,0	13,3
2,508	17,6	13,5
2,5085	16,5	13,5
2,509	14,3	13,3
2,5095	11,2	12,8
2,51	7,6	12,3
2,5105	3,6	12,1
2,511	-0,1	12,6
2,5115	-2,4	13,9
2,512	-2,5	15,6
2,5125	-0,8	17,1
2,513	1,6	18,4
2,5135	3,5	19,6
2,514	4,1	20,5
2,5145	2,5	20,8
2,515	-1,2	20,3
2,5155	-6,0	19,0
2,516	-10,2	17,5
2,5165	-12,4	16,4
2,517	-12,2	15,8
2,5175	-10,2	15,6
2,518	-6,6	16,0
2,5185	-2,1	17,0
2,519	2,8	18,3
2,5195	6,7	18,8
2,52	8,5	18,1
2,5205	7,5	16,3
2,521	4,2	14,0
2,5215	-0,2	12,0
2,522	-4,5	10,4
2,5225	-7,9	9,3
2,523	-9,4	8,9
2,5235	-8,2	9,0
2,524	-4,7	9,1
2,5245	-0,3	9,0
2,525	3,9	8,8
2,5255	7,3	8,7
2,526	9,5	9,0
2,5265	10,3	9,3
2,527	9,8	9,3
2,5275	8,7	8,6
2,528	8,3	7,6
2,5285	9,2	6,9
2,529	11,1	6,6
2,5295	13,5	6,6
2,53	15,8	6,6
2,5305	17,9	6,5
2,531	19,2	6,5
2,5315	18,7	6,4
2,532	16,2	6,0
2,5325	12,5	5,4
2,533	8,9	4,7
2,5335	7,0	3,8
2,534	7,1	2,7
2,5345	9,1	1,8
2,535	12,6	1,4
2,5355	17,2	2,1
2,536	21,9	3,4
2,5365	25,6	4,6
2,537	27,3	5,4
2,5375	27,0	5,3
2,538	25,7	4,3
2,5385	23,9	2,4
2,539	22,0	0,2
2,5395	20,3	-1,7
2,54	19,8	-2,2
2,5405	20,9	-1,3
2,541	22,6	0,6
2,5415	23,3	2,5
2,542	22,1	4,1
2,5425	18,4	5,1
2,543	12,4	5,5
2,5435	5,2	5,5
2,544	-1,8	5,6
2,5445	-6,7	6,0
2,545	-8,3	7,0
2,5455	-6,3	8,7
2,546	-1,9	10,9
2,5465	3,2	13,6
2,547	7,9	16,6
2,5475	11,4	19,4
2,548	12,6	21,2
2,5485	10,9	21,8
2,549	7,1	21,5
2,5495	3,1	20,8
2,55	0,3	19,9
2,5505	-0,7	19,2
2,551	0,4	19,1
2,5515	3,3	19,9
2,552	7,6	21,2
2,5525	12,3	22,1
2,553	16,0	22,1
2,5535	17,2	21,1
2,554	15,7	19,3
2,5545	12,1	17,3
2,555	7,5	15,7
2,5555	3,1	14,6
2,556	-0,1	13,8
2,5565	-1,1	13,6
2,557	0,2	13,8
2,5575	2,8	14,0
2,558	5,1	14,0
2,5585	6,2	13,2
2,559	6,1	11,7
2,5595	5,0	9,7
2,56	3,0	7,3
2,5605	0,7	4,8
2,561	-1,1	2,8
2,5615	-1,2	1,9
2,562	1,2	2,3
2,5625	5,5	3,3
2,563	10,6	4,6
2,5635	15,5	5,8
2,564	19,1	6,7
2,5645	20,3	6,9
2,565	18,8	6,2
2,5655	15,2	4,9
2,566	11,2	3,7
2,5665	8,1	3,1
2,567	6,4	3,0
2,5675	6,4	3,4
2,568	8,3	4,7
2,5685	11,8	6,8
2,569	15,8	9,3
2,5695	19,1	11,4
2,57	20,6	12,3
2,5705	20,5	12,0
2,571	19,1	10,9
2,5715	16,7	9,9
2,572	13,6	9,7
2,5725	10,2	10,1
2,573	7,6	11,0
2,5735	7,0	12,1
2,574	8,3	13,1
2,5745	10,3	13,5
2,575	12,1	13,7
2,5755	13,2	13,7
2,576	13,6	13,9
2,5765	12,7	13,9
2,577	10,2	13,6
2,5775	6,8	12,9
2,578	3,7	12,3
2,5785	1,9	12,1
2,579	1,3	12,5
2,5795	1,1	13,4
2,58	0,9	14,6
2,5805	0,7	15,9
2,581	-0,6	16,7
2,5815	-4,4	16,2
2,582	-11,1	14,0
2,5825	-19,0	10,3
2,583	-26,3	6,3
2,5835	-32,3	2,8
2,584	-36,9	0,3
2,5845	-40,3	-1,1
2,585	-42,0	-1,5
2,5855	-42,2	-1,2
2,586	-41,5	-0,7
2,5865	-40,8	-0,5
2,587	-40,2	-0,8
2,5875	-39,1	-1,4
2,588	-36,9	-2,0
2,5885	-33,9	-2,2
2,589	-30,4	-1,9
2,5895	-25,5	-0,8
2,59	-18,1	1,0
2,5905	-8,6	3,4
2,591	1,2	5,8
2,5915	9,5	7,6
2,592	15,5	8,7
2,5925	19,0	9,3
2,593	19,4	9,9
2,5935	16,5	10,3
2,594	10,8	10,3
2,5945	4,4	10,3
2,595	-0,4	10,3
2,5955	-2,2	10,7
2,596	-0,8	11,7
2,5965	3,5	13,0
2,597	10,2	14,4
2,5975	18,2	15,3
2,598	25,1	15,2
2,5985	29,2	14,0
2,599	30,5	12,2
2,5995	31,0	10,3
2,6	32,3	8,7
2,6005	34,4	7,5
2,601	36,6	6,8
2,6015	38,8	6,8
2,602	40,8	7,6
2,6025	42,8	8,9
2,603	43,7	10,3
2,6035	42,8	10,9
2,604	39,7	10,5
2,6045	34,9	9,3
2,605	28,8	7,8
2,6055	21,5	6,3
2,606	13,8	4,9
2,6065	6,9	4,3
2,607	1,6	4,3
2,6075	-2,1	4,9
2,608	-4,7	5,4
2,6085	-6,4	5,6
2,609	-7,2	5,2
2,6095	-7,6	4,1
2,61	-8,0	2,4
2,6105	-8,9	0,7
2,611	-10,1	-0,8
2,6115	-10,3	-1,6
2,612	-8,3	-1,4
2,6125	-3,6	-0,8
2,613	3,1	-0,3
2,6135	10,7	-0,2
2,614	17,9	-0,3
2,6145	23,2	-0,4
2,615	25,0	-0,4
2,6155	23,2	-0,2
2,616	19,0	0,5
2,6165	14,3	1,6
2,617	9,8	3,0
2,6175	6,2	4,5
2,618	3,9	6,1
2,6185	3,3	7,8
2,619	4,6	9,4
2,6195	6,5	10,7
2,62	8,0	11,2
2,6205	8,1	10,8
2,621	7,1	9,8
2,6215	5,7	8,8
2,622	4,3	8,5
2,6225	2,8	8,8
2,623	1,7	9,7
2,6235	1,4	10,8
2,624	1,7	11,6
2,6245	2,5	12,1
2,625	3,7	12,1
2,6255	5,7	11,8
2,626	7,9	11,3
2,6265	9,6	10,2
2,627	10,0	8,8
2,6275	9,2	7,4
2,628	7,9	6,8
2,6285	6,6	6,8
2,629	4,7	7,1
2,6295	1,7	7,5
2,63	-2,5	7,8
2,6305	-6,9	7,9
2,631	-10,8	7,7
2,6315	-14,3	6,8
2,632	-17,3	5,1
2,6325	-19,7	3,0
2,633	-21,0	1,4
2,6335	-21,0	0,5
2,634	-19,8	0,3
2,6345	-16,8	0,7
2,635	-12,2	1,8
2,6355	-6,2	3,4
2,636	0,3	5,3
2,6365	5,6	6,8
2,637	8,5	7,2
2,6375	8,7	6,6
2,638	6,8	5,3
2,6385	3,8	4,4
2,639	0,4	4,2
2,6395	-2,6	4,8
2,64	-4,8	6,1
2,6405	-6,3	7,7
2,641	-8,1	8,8
2,6415	-10,5	9,0
2,642	-12,6	8,8
2,6425	-13,1	8,7
2,643	-11,6	8,6
2,6435	-8,6	8,2
2,644	-4,6	7,3
2,6445	0,0	6,3
2,645	5,2	5,8
2,6455	10,3	6,3
2,646	14,3	7,5
2,6465	17,0	8,9
2,647	18,4	9,6
2,6475	19,0	9,2
2,648	18,4	7,6
2,6485	15,9	5,1
2,649	12,1	2,6
2,6495	8,3	0,7
2,65	5,8	-0,4
2,6505	5,0	-0,6
2,651	6,0	-0,3
2,6515	8,5	0,4
2,652	12,1	1,3
2,6525	15,5	2,2
2,653	17,8	2,7
2,6535	18,0	2,6
2,654	16,4	1,9
2,6545	13,9	1,2
2,655	11,5	0,8
2,6555	9,2	0,6
2,656	7,1	0,7
2,6565	5,8	1,2
2,657	5,6	2,3
2,6575	6,0	3,8
2,658	6,1	5,6
2,6585	5,3	7,0
2,659	4,1	7,9
2,6595	2,2	8,1
2,66	-0,7	7,7
2,6605	-4,3	6,7
2,661	-7,8	5,8
2,6615	-9,2	5,5
2,662	-7,3	6,0
2,6625	-2,5	7,0
2,663	4,0	8,2
2,6635	10,2	9,2
2,664	14,7	10,0
2,6645	16,3	10,1
2,665	14,5	9,6
2,6655	10,0	8,7
2,666	4,4	7,6
2,6665	-0,8	6,5
2,667	-4,8	5,5
2,6675	-7,2	4,6
2,668	-7,8	4,1
2,6685	-6,0	3,8
2,669	-2,1	3,8
2,6695	3,1	3,9
2,67	7,7	4,3
2,6705	10,3	4,8
2,671	10,5	5,4
2,6715	8,7	5,9
2,672	5,7	5,8
2,6725	2,2	5,3
2,673	-0,5	4,8
2,6735	-1,8	4,8
2,674	-1,8	5,4
2,6745	-1,7	6,0
2,675	-2,1	6,2
2,6755	-3,3	6,0
2,676	-5,5	5,4
2,6765	-9,1	4,5
2,677	-14,4	3,4
2,6775	-20,7	2,2
2,678	-26,7	1,6
2,6785	-31,4	2,2
2,679	-34,3	3,7
2,6795	-35,4	5,8
2,68	-34,3	7,5
2,6805	-31,1	8,4
2,681	-27,2	8,4
2,6815	-24,2	7,7
2,682	-23,0	6,5
2,6825	-22,9	5,2
2,683	-22,3	4,5
2,6835	-20,0	4,3
2,684	-16,0	4,3
2,6845	-10,9	4,3
2,685	-5,0	4,4
2,6855	1,7	5,0
2,686	8,8	5,9
2,6865	15,3	6,9
2,687	19,9	7,7
2,6875	22,4	7,9
2,688	23,4	7,6
2,6885	23,6	6,9
2,689	22,7	5,9
2,6895	21,2	5,0
2,69	20,3	4,8
2,6905	20,8	5,3
2,691	22,3	6,5
2,6915	23,2	7,5
2,692	22,5	8,0
2,6925	20,4	7,7
2,693	17,3	6,6
2,6935	13,9	4,5
2,694	10,4	1,9
2,6945	7,5	-0,6
2,695	6,3	-2,4
2,6955	6,8	-3,1
2,696	8,7	-2,7
2,6965	11,3	-1,4
2,697	14,5	0,3
2,6975	17,9	2,1
2,698	20,2	3,5
2,6985	20,2	4,0
2,699	18,0	3,8
2,6995	15,0	3,1
2,7	12,5	2,0
2,7005	11,3	0,9
2,701	11,8	0,0
2,7015	14,3	-0,2
2,702	18,3	0,5
2,7025	23,0	2,4
2,703	26,8	5,0
2,7035	28,2	7,7
2,704	26,9	9,8
2,7045	23,2	11,0
2,705	17,5	11,2
2,7055	10,4	10,3
2,706	3,3	8,6
2,7065	-1,3	6,7
2,707	-2,3	5,3
2,7075	-0,3	4,9
2,708	3,1	5,0
2,7085	6,8	5,4
2,709	10,8	5,7
2,7095	14,5	5,6
2,71	16,8	5,1
2,7105	16,5	4,3
2,711	13,5	3,7
2,7115	9,2	3,5
2,712	5,5	3,8
2,7125	3,3	4,4
2,713	2,6	5,0
2,7135	3,2	5,8
2,714	4,7	6,9
2,7145	6,0	7,9
2,715	5,9	7,9
2,7155	4,2	6,7
2,716	1,6	4,8
2,7165	0,0	3,3
2,717	0,2	2,5
2,7175	2,1	2,1
2,718	5,1	1,8
2,7185	8,8	1,9
2,719	12,5	2,6
2,7195	15,4	3,5
2,72	16,5	3,9
2,7205	15,4	3,6
2,721	12,5	2,7
2,7215	8,5	1,8
2,722	4,1	1,1
2,7225	-0,0	1,0
2,723	-2,9	1,5
2,7235	-4,0	2,6
2,724	-3,4	4,3
2,7245	-2,3	6,2
2,725	-1,4	7,5
2,7255	-0,7	8,3
2,726	-0,3	8,5
2,7265	-0,8	8,6
2,727	-2,8	8,7
2,7275	-6,8	9,0
2,728	-12,1	9,6
2,7285	-16,9	10,8
2,729	-19,7	12,0
2,7295	-19,6	12,8
2,73	-16,8	12,9
2,7305	-11,8	12,9
2,731	-6,3	12,8
2,7315	-2,0	12,8
2,732	0,2	12,3
2,7325	1,0	11,3
2,733	1,5	9,8
2,7335	2,8	8,0
2,734	5,0	6,2
2,7345	8,3	4,9
2,735	13,0	4,7
2,7355	18,5	5,1
2,736	24,0	5,6
2,7365	28,1	5,6
2,737	30,0	5,2
2,7375	29,9	4,5
2,738	28,4	3,8
2,7385	25,6	3,3
2,739	21,4	2,8
2,7395	16,4	2,3
2,74	12,0	2,5
2,7405	9,3	3,3
2,741	8,0	4,4
2,7415	7,1	5,2
2,742	5,9	5,0
2,7425	3,8	3,8
2,743	0,4	1,8
2,7435	-4,2	-0,9
2,744	-9,3	-3,8
2,7445	-14,1	-6,4
2,745	-17,0	-8,1
2,7455	-17,5	-8,8
2,746	-15,5	-8,6
2,7465	-11,8	-7,8
2,747	-7,3	-6,7
2,7475	-2,9	-5,5
2,748	0,7	-4,6
2,7485	3,1	-4,2
2,749	4,5	-4,2
2,7495	5,8	-4,1
2,75	7,3	-3,8
2,7505	8,4	-3,0
2,751	8,2	-1,5
2,7515	7,1	0,9
2,752	6,0	4,0
2,7525	5,4	7,0
2,753	5,0	8,6
2,7535	4,2	8,4
2,754	2,9	6,8
2,7545	1,6	4,7
2,755	0,6	2,8
2,7555	-0,1	0,9
2,756	-0,4	-0,6
2,7565	-0,1	-1,6
2,757	1,2	-1,6
2,7575	3,2	-0,8
2,758	5,8	0,5
2,7585	8,8	1,7
2,759	12,2	2,3
2,7595	15,3	2,1
2,76	16,8	1,3
2,7605	15,9	0,3
2,761	12,6	-0,1
2,7615	7,9	0,7
2,762	3,2	2,8
2,7625	-1,6	5,3
2,763	-7,2	7,0
2,7635	-14,0	7,5
2,764	-21,4	7,1
2,7645	-28,6	6,1
2,765	-35,4	4,8
2,7655	-41,6	3,6
2,766	-46,5	2,8
2,7665	-48,8	2,8
2,767	-47,9	3,1
2,7675	-44,0	3,3
2,768	-37,3	3,8
2,7685	-28,4	4,8
2,769	-18,0	6,3
2,7695	-7,8	7,9
2,77	-0,1	8,7
2,7705	3,9	8,5
2,771	4,2	7,3
2,7715	1,8	5,8
2,772	-2,1	4,3
2,7725	-6,3	3,1
2,773	-9,6	2,4
2,7735	-11,3	2,8
2,774	-11,6	4,2
2,7745	-11,6	6,0
2,775	-11,8	7,6
2,7755	-12,1	8,9
2,776	-12,0	9,7
2,7765	-11,4	10,0
2,777	-10,6	9,7
2,7775	-9,6	8,6
2,778	-7,4	7,1
2,7785	-2,5	5,8
2,779	5,4	5,0
2,7795	15,5	4,7
2,78	25,9	4,8
2,7805	34,8	4,8
2,781	40,6	4,6
2,7815	42,2	3,9
2,782	39,5	2,5
2,7825	34,3	1,0
2,783	28,8	-0,2
2,7835	24,4	-0,8
2,784	21,9	-0,7
2,7845	21,3	0,1
2,785	22,6	1,6
2,7855	25,2	3,7
2,786	27,7	6,2
2,7865	28,9	8,5
2,787	27,9	10,1
2,7875	25,0	11,0
2,788	21,0	11,5
2,7885	16,5	11,8
2,789	12,1	11,7
2,7895	8,0	11,3
2,79	5,1	11,0
2,7905	3,6	11,0
2,791	3,2	11,2
2,7915	3,5	11,2
2,792	4,3	10,9
2,7925	5,3	10,6
2,793	5,8	10,3
2,7935	5,2	10,0
2,794	3,3	9,6
2,7945	0,9	9,0
2,795	-0,6	8,5
2,7955	-0,4	8,3
2,796	1,6	8,3
2,7965	5,0	8,4
2,797	9,6	8,5
2,7975	14,6	8,6
2,798	18,2	8,3
2,7985	19,0	7,5
2,799	17,1	6,3
2,7995	14,0	5,3
2,8	11,0	4,8
2,8005	8,6	4,8
2,801	6,8	5,3
2,8015	5,7	6,4
2,802	5,3	8,0
2,8025	5,8	10,0
2,803	6,0	11,9
2,8035	4,8	13,3
2,804	2,1	14,2
2,8045	-1,5	14,4
2,805	-5,4	14,0
2,8055	-9,0	13,2
2,806	-12,1	12,3
2,8065	-14,2	11,9
2,807	-15,1	12,3
2,8075	-15,4	13,0
2,808	-15,7	13,5
2,8085	-16,3	13,4
2,809	-17,2	12,6
2,8095	-18,9	11,4
2,81	-21,9	9,9
2,8105	-25,9	8,4
2,811	-29,8	7,3
2,8115	-32,2	7,1
2,812	-32,4	8,1
2,8125	-30,7	9,9
2,813	-27,8	11,7
2,8135	-24,4	13,0
2,814	-20,7	13,7
2,8145	-17,3	13,9
2,815	-15,5	13,7
2,8155	-15,3	13,2
2,816	-15,9	12,4
2,8165	-15,6	11,7
2,817	-13,4	11,3
2,8175	-9,4	11,6
2,818	-4,3	12,7
2,8185	1,4	14,1
2,819	7,2	15,7
2,8195	12,6	16,8
2,82	16,8	17,2
2,8205	19,8	16,8
2,821	22,0	15,8
2,8215	24,1	14,4
2,822	26,1	12,8
2,8225	27,8	11,3
2,823	29,5	10,4
2,8235	32,2	10,5
2,824	35,5	11,5
2,8245	37,9	12,9
2,825	37,7	13,8
2,8255	33,8	14,1
2,826	26,9	13,7
2,8265	18,4	12,6
2,827	10,2	11,1
2,8275	3,4	9,5
2,828	-0,3	8,3
2,8285	-0,6	7,8
2,829	2,0	7,7
2,8295	6,0	7,5
2,83	10,3	6,8
2,8305	14,7	5,9
2,831	18,3	4,8
2,8315	20,0	3,5
2,832	19,0	1,8
2,8325	15,7	0,2
2,833	11,9	-0,7
2,8335	8,9	-0,5
2,834	7,6	0,4
2,8345	8,2	1,6
2,835	10,3	3,0
2,8355	12,9	4,7
2,836	14,9	6,7
2,8365	14,8	8,7
2,837	12,1	10,1
2,8375	6,8	11,0
2,838	-0,3	11,5
2,8385	-7,9	11,4
2,839	-14,9	11,0
2,8395	-20,0	10,8
2,84	-22,2	11,4
2,8405	-21,0	12,9
2,841	-17,4	14,7
2,8415	-13,1	15,7
2,842	-9,4	15,8
2,8425	-6,8	15,1
2,843	-5,8	14,1
2,8435	-6,5	12,7
2,844	-8,7	10,9
2,8445	-11,8	8,9
2,845	-14,7	7,3
2,8455	-16,7	6,6
2,846	-17,0	6,9
2,8465	-15,4	7,9
2,847	-11,8	9,2
2,8475	-6,7	10,3
2,848	-1,6	10,8
2,8485	2,2	10,8
2,849	4,3	10,6
2,8495	5,0	11,0
2,85	5,0	11,9
2,8505	4,8	12,7
2,851	4,6	12,5
2,8515	5,1	11,0
2,852	6,8	8,9
2,8525	9,5	7,0
2,853	12,1	5,5
2,8535	13,1	3,9
2,854	12,0	2,2
2,8545	9,4	0,4
2,855	6,5	-1,1
2,8555	4,0	-2,0
2,856	2,9	-2,4
2,8565	3,8	-2,0
2,857	7,1	-1,0
2,8575	11,7	0,4
2,858	15,9	2,1
2,8585	18,5	3,8
2,859	19,0	5,4
2,8595	17,2	6,4
2,86	13,4	6,8
2,8605	8,4	6,7
2,861	3,3	6,4
2,8615	-0,6	6,4
2,862	-2,3	7,0
2,8625	-1,9	8,1
2,863	0,3	9,5
2,8635	3,3	11,2
2,864	6,6	13,1
2,8645	9,1	14,7
2,865	10,1	15,3
2,8655	9,7	14,5
2,866	8,9	12,8
2,8665	8,8	11,0
2,867	10,0	9,6
2,8675	12,3	8,6
2,868	15,6	8,3
2,8685	19,4	8,8
2,869	23,0	9,8
2,8695	25,3	10,7
2,87	25,3	11,0
2,8705	22,6	10,5
2,871	17,5	9,3
2,8715	10,5	7,9
2,872	2,0	6,5
2,8725	-7,1	5,5
2,873	-15,1	5,1
2,8735	-20,4	5,4
2,874	-22,9	6,5
2,8745	-23,9	8,0
2,875	-24,8	9,4
2,8755	-26,2	10,4
2,876	-27,5	10,8
2,8765	-28,9	10,7
2,877	-30,3	9,8
2,8775	-31,6	8,5
2,878	-31,5	7,2
2,8785	-28,9	6,3
2,879	-24,0	5,8
2,8795	-17,6	5,5
2,88	-11,0	5,3
2,8805	-5,0	5,2
2,881	-0,1	5,3
2,8815	2,6	5,7
2,882	2,8	6,1
2,8825	1,6	6,4
2,883	0,6	6,5
2,8835	1,2	6,3
2,884	3,6	6,2
2,8845	7,4	6,4
2,885	12,8	7,3
2,8855	19,2	8,9
2,886	25,7	10,9
2,8865	30,2	12,5
2,887	31,8	12,8
2,8875	30,8	11,8
2,888	28,0	10,0
2,8885	24,5	8,0
2,889	21,2	6,4
2,8895	18,7	5,6
2,89	18,1	5,9
2,8905	19,7	7,0
2,891	22,3	8,7
2,8915	24,6	10,6
2,892	25,4	12,2
2,8925	24,5	13,4
2,893	21,9	14,3
2,8935	17,2	14,9
2,894	10,6	15,3
2,8945	3,1	15,5
2,895	-3,4	15,7
2,8955	-7,5	16,1
2,896	-8,5	16,8
2,8965	-6,6	17,4
2,897	-2,8	17,8
2,8975	1,9	18,1
2,898	6,7	18,2
2,8985	10,5	17,9
2,899	12,9	17,2
2,8995	14,4	16,4
2,9	15,6	15,8
2,9005	16,9	15,3
2,901	18,6	14,8
2,9015	21,2	14,2
2,902	25,2	14,0
2,9025	30,4	14,2
2,903	35,8	14,5
2,9035	39,4	14,3
2,904	40,4	13,5
2,9045	38,9	12,1
2,905	35,7	10,5
2,9055	31,5	9,0
2,906	27,0	7,9
2,9065	23,2	7,5
2,907	20,8	7,9
2,9075	20,2	9,0
2,908	20,6	10,2
2,9085	20,9	10,9
2,909	20,5	11,0
2,9095	19,0	10,6
2,91	15,9	9,8
2,9105	11,1	8,7
2,911	4,9	7,6
2,9115	-1,7	7,0
2,912	-8,0	7,5
2,9125	-13,7	8,9
2,913	-19,2	10,9
2,9135	-24,5	12,8
2,914	-28,8	14,5
2,9145	-31,2	15,9
2,915	-31,9	16,8
2,9155	-31,4	17,0
2,916	-29,3	16,7
2,9165	-25,0	16,3
2,917	-18,2	16,1
2,9175	-9,9	16,0
2,918	-1,0	16,0
2,9185	7,6	16,7
2,919	15,2	18,1
2,9195	21,1	19,8
2,92	24,6	20,7
2,9205	25,8	20,3
2,921	25,8	19,3
2,9215	25,4	18,1
2,922	25,0	16,9
2,9225	24,9	15,9
2,923	25,1	15,5
2,9235	25,7	15,9
2,924	25,9	17,2
2,9245	25,1	18,8
2,925	23,3	20,3
2,9255	21,4	21,2
2,926	20,5	21,4
2,9265	20,4	20,8
2,927	20,6	19,6
2,9275	20,8	18,0
2,928	21,8	16,6
2,9285	24,6	15,9
2,929	29,0	15,9
2,9295	33,9	16,5
2,93	37,6	17,2
2,9305	39,6	17,6
2,931	40,0	17,8
2,9315	39,0	17,8
2,932	36,7	17,3
2,9325	33,2	16,5
2,933	29,4	15,6
2,9335	25,9	14,5
2,934	22,9	13,4
2,9345	20,7	12,6
2,935	19,6	12,5
2,9355	19,8	13,4
2,936	20,5	15,0
2,9365	20,5	16,3
2,937	18,6	16,1
2,9375	14,8	14,2
2,938	10,2	11,1
2,9385	5,9	7,9
2,939	2,8	5,2
2,9395	1,6	3,6
2,94	2,9	3,3
2,9405	6,3	4,3
2,941	10,4	5,8
2,9415	13,5	7,3
2,942	14,7	7,8
2,9425	13,9	7,1
2,943	11,7	5,3
2,9435	9,2	3,2
2,944	7,3	1,3
2,9445	6,9	0,2
2,945	8,6	-0,2
2,9455	11,9	0,2
2,946	15,2	1,1
2,9465	16,8	2,7
2,947	15,8	4,7
2,9475	12,6	6,8
2,948	7,8	8,4
2,9485	1,8	9,1
2,949	-4,6	8,8
2,9495	-9,6	8,1
2,95	-11,9	7,4
2,9505	-11,5	6,9
2,951	-8,8	6,4
2,9515	-4,1	6,1
2,952	2,7	6,3
2,9525	10,0	7,2
2,953	15,6	8,0
2,9535	17,8	8,3
2,954	16,7	7,6
2,9545	13,8	6,1
2,955	10,4	3,9
2,9555	7,3	1,2
2,956	4,7	-1,9
2,9565	3,3	-4,2
2,957	3,2	-4,7
2,9575	3,8	-2,8
2,958	3,7	0,6
2,9585	1,7	4,3
2,959	-2,1	7,5
2,9595	-6,9	9,3
2,96	-12,3	9,5
2,9605	-17,4	8,1
2,961	-21,4	5,7
2,9615	-23,2	3,5
2,962	-21,9	2,5
2,9625	-17,4	2,7
2,963	-10,5	3,6
2,9635	-1,8	4,9
2,964	7,3	6,4
2,9645	15,2	7,6
2,965	20,2	8,1
2,9655	22,0	7,8
2,966	21,7	7,1
2,9665	21,2	7,0
2,967	21,7	7,8
2,9675	23,2	9,4
2,968	25,6	11,7
2,9685	28,3	14,1
2,969	31,3	16,4
2,9695	34,0	18,1
2,97	35,3	18,4
2,9705	34,8	17,3
2,971	32,7	15,3
2,9715	29,9	13,0
2,972	27,0	11,0
2,9725	24,5	9,3
2,973	23,2	8,1
2,9735	23,9	7,9
2,974	26,7	8,8
2,9745	30,2	10,4
2,975	33,3	12,1
2,9755	35,7	13,3
2,976	37,6	13,6
2,9765	38,9	12,9
2,977	39,4	11,6
2,9775	38,9	10,2
2,978	38,1	9,2
2,9785	37,7	9,0
2,979	38,3	9,6
2,9795	40,1	10,6
2,98	42,6	11,5
2,9805	45,3	12,4
2,981	47,2	13,1
2,9815	47,0	13,1
2,982	43,8	12,1
2,9825	38,3	10,3
2,983	32,2	8,2
2,9835	27,5	6,7
2,984	24,9	5,8
2,9845	24,6	5,3
2,985	26,2	5,4
2,9855	29,1	6,3
2,986	32,2	7,6
2,9865	34,3	8,7
2,987	34,3	8,8
2,9875	32,7	8,2
2,988	29,8	7,1
2,9885	26,0	6,2
2,989	21,3	5,8
2,9895	16,2	5,9
2,99	11,5	6,6
2,9905	7,8	7,8
2,991	4,9	8,8
2,9915	2,3	9,1
2,992	-0,2	8,7
2,9925	-1,8	7,9
2,993	-2,6	7,0
2,9935	-3,2	6,2
2,994	-4,3	5,5
2,9945	-5,3	4,9
2,995	-5,1	4,3
2,9955	-3,1	3,8
2,996	0,6	3,9
2,9965	4,7	4,6
2,997	8,4	5,7
2,9975	11,4	6,8
2,998	13,1	7,7
2,9985	13,0	8,1
2,999	11,4	8,0
2,9995	9,6	7,5
3	9,0	6,9
3,0005	10,3	6,7
3,001	13,4	6,8
3,0015	17,8	7,3
3,002	23,0	8,3
3,0025	28,8	9,6
3,003	34,1	10,6
3,0035	37,8	10,7
3,004	38,7	9,7
3,0045	36,5	7,8
3,005	31,4	5,5
3,0055	23,8	3,2
3,006	14,4	1,3
3,0065	5,4	0,1
3,007	-1,2	0,1
3,0075	-4,1	0,9
3,008	-3,9	1,7
3,0085	-1,8	1,7
3,009	1,2	0,9
3,0095	3,7	-0,5
3,01	4,4	-2,1
3,0105	3,4	-3,1
3,011	1,4	-3,2
3,0115	-0,2	-2,4
3,012	-0,3	-0,9
3,0125	1,4	0,6
3,013	4,7	1,4
3,0135	8,9	1,3
3,014	13,8	0,8
3,0145	19,0	-0,1
3,015	23,0	-1,4
3,0155	25,2	-3,3
3,016	25,9	-5,3
3,0165	26,2	-6,9
3,017	26,7	-7,5
3,0175	27,5	-7,6
3,018	29,2	-7,6
3,0185	31,9	-7,7
3,019	35,6	-7,5
3,0195	39,4	-7,0
3,02	42,0	-6,6
3,0205	42,2	-6,8
3,021	40,1	-7,8
3,0215	36,6	-9,3
3,022	32,4	-11,1
3,0225	28,1	-12,7
3,023	24,4	-13,5
3,0235	22,7	-13,0
3,024	23,6	-11,4
3,0245	26,6	-9,3
3,025	30,5	-7,3
3,0255	34,3	-5,9
3,026	37,2	-5,3
3,0265	37,7	-5,6
3,027	34,5	-6,5
3,0275	27,5	-7,4
3,028	18,3	-7,7
3,0285	9,5	-7,2
3,029	2,7	-6,3
3,0295	-2,2	-4,8
3,03	-5,2	-3,1
3,0305	-6,7	-1,7
3,031	-6,9	-1,2
3,0315	-6,6	-1,9
3,032	-6,9	-3,8
3,0325	-7,4	-6,1
3,033	-6,9	-8,5
3,0335	-4,5	-10,5
3,034	-0,4	-12,2
3,0345	4,3	-13,2
3,035	8,9	-13,5
3,0355	12,7	-13,5
3,036	15,1	-13,8
3,0365	15,5	-14,6
3,037	13,4	-16,1
3,0375	9,2	-18,1
3,038	3,7	-20,1
3,0385	-2,0	-21,7
3,039	-7,5	-22,5
3,0395	-11,8	-22,4
3,04	-13,4	-21,2
3,0405	-11,9	-18,8
3,041	-8,3	-16,0
3,0415	-3,9	-13,7
3,042	0,0	-12,0
3,0425	2,8	-10,6
3,043	3,9	-9,3
3,0435	3,0	-8,5
3,044	1,1	-8,3
3,0445	-0,4	-8,6
3,045	-0,5	-8,9
3,0455	1,1	-9,1
3,046	3,8	-9,2
3,0465	7,2	-9,5
3,047	11,0	-10,1
3,0475	15,8	-10,9
3,048	21,3	-12,0
3,0485	26,1	-13,4
3,049	29,0	-15,1
3,0495	30,3	-16,8
3,05	31,0	-18,3
3,0505	31,8	-19,5
3,051	33,1	-20,3
3,0515	35,1	-20,5
3,052	37,7	-20,2
3,0525	40,4	-19,2
3,053	42,3	-17,6
3,0535	42,1	-15,7
3,054	38,7	-14,0
3,0545	32,4	-12,7
3,055	24,5	-11,7
3,0555	16,7	-10,8
3,056	10,5	-9,8
3,0565	7,4	-8,8
3,057	8,3	-8,0
3,0575	12,1	-7,9
3,058	17,1	-8,8
3,0585	21,5	-10,6
3,059	24,9	-12,9
3,0595	27,0	-14,9
3,06	27,5	-16,6
3,0605	26,0	-17,9
3,061	22,8	-19,4
3,0615	19,3	-20,7
3,062	17,2	-21,4
3,0625	17,5	-21,3
3,063	19,7	-20,3
3,0635	23,1	-18,7
3,064	26,8	-16,7
3,0645	29,9	-15,0
3,065	31,5	-14,1
3,0655	31,1	-14,4
3,066	29,1	-15,5
3,0665	26,7	-16,8
3,067	24,6	-17,9
3,0675	23,3	-18,4
3,068	22,8	-18,1
3,0685	23,4	-16,9
3,069	24,5	-14,8
3,0695	25,3	-12,1
3,07	24,8	-9,4
3,0705	22,3	-7,7
3,071	18,4	-7,2
3,0715	14,3	-7,9
3,072	11,0	-9,8
3,0725	8,6	-12,2
3,073	7,9	-14,3
3,0735	9,3	-15,2
3,074	12,6	-14,9
3,0745	16,3	-14,1
3,075	19,4	-13,8
3,0755	21,6	-14,1
3,076	22,9	-15,2
3,0765	22,7	-16,8
3,077	20,9	-18,4
3,0775	18,1	-19,5
3,078	15,4	-19,4
3,0785	14,4	-17,9
3,079	15,9	-15,6
3,0795	19,5	-12,8
3,08	24,7	-10,0
3,0805	30,2	-7,0
3,081	34,9	-4,3
3,0815	37,1	-2,7
3,082	36,3	-2,2
3,0825	33,3	-2,5
3,083	29,8	-3,2
3,0835	26,9	-3,6
3,084	24,7	-3,5
3,0845	23,2	-2,9
3,085	22,7	-1,7
3,0855	23,9	-0,2
3,086	26,9	1,0
3,0865	30,1	1,4
3,087	31,5	0,7
3,0875	30,1	-0,6
3,088	26,1	-1,7
3,0885	20,7	-2,1
3,089	15,0	-1,7
3,0895	10,1	-0,9
3,09	7,0	0,3
3,0905	6,2	1,9
3,091	6,8	3,3
3,0915	7,6	4,6
3,092	8,2	5,1
3,0925	8,4	4,8
3,093	8,0	3,8
3,0935	6,4	2,0
3,094	3,7	-0,3
3,0945	1,0	-2,8
3,095	-0,3	-4,6
3,0955	0,7	-5,5
3,096	3,7	-5,4
3,0965	7,9	-4,8
3,097	12,1	-4,2
3,0975	15,5	-3,6
3,098	17,4	-3,3
3,0985	17,0	-3,2
3,099	14,3	-3,6
3,0995	9,8	-4,6
3,1	4,5	-5,7
3,1005	-1,3	-6,5
3,101	-7,8	-6,7
3,1015	-14,3	-6,3
3,102	-20,3	-5,7
3,1025	-25,1	-5,0
3,103	-28,5	-4,7
3,1035	-31,1	-4,9
3,104	-33,6	-5,8
3,1045	-35,9	-7,0
3,105	-37,3	-8,6
3,1055	-37,3	-10,4
3,106	-35,3	-12,4
3,1065	-30,9	-13,7
3,107	-23,6	-13,7
3,1075	-14,4	-12,5
3,108	-5,4	-10,7
3,1085	1,7	-8,8
3,109	6,5	-6,7
3,1095	8,9	-4,8
3,11	9,2	-3,3
3,1105	7,5	-2,3
3,111	4,7	-1,5
3,1115	2,3	-0,4
3,112	1,8	1,0
3,1125	4,0	2,3
3,113	9,4	3,1
3,1135	17,6	3,3
3,114	27,8	3,3
3,1145	38,5	3,3
3,115	47,2	3,1
3,1155	52,3	2,2
3,116	54,0	0,7
3,1165	53,9	-0,9
3,117	53,3	-2,3
3,1175	52,7	-3,1
3,118	52,0	-3,1
3,1185	51,2	-2,3
3,119	50,1	-0,8
3,1195	48,3	0,9
3,12	44,5	1,9
3,1205	37,7	1,8
3,121	28,2	0,6
3,1215	17,5	-1,3
3,122	7,2	-3,5
3,1225	-1,7	-5,8
3,123	-8,3	-7,7
3,1235	-12,0	-8,7
3,124	-12,8	-8,8
3,1245	-11,5	-8,3
3,125	-9,2	-7,7
3,1255	-6,4	-7,3
3,126	-3,1	-7,3
3,1265	0,0	-7,9
3,127	2,6	-9,1
3,1275	4,3	-10,5
3,128	5,1	-11,7
3,1285	5,6	-12,3
3,129	6,1	-12,2
3,1295	6,4	-11,4
3,13	6,4	-10,1
3,1305	5,3	-8,4
3,131	2,6	-6,8
3,1315	-1,7	-5,5
3,132	-7,1	-5,1
3,1325	-12,3	-5,3
3,133	-15,9	-5,6
3,1335	-16,6	-5,7
3,134	-14,2	-5,4
3,1345	-9,4	-4,8
3,135	-2,9	-3,9
3,1355	4,7	-2,3
3,136	13,3	-0,7
3,1365	21,9	0,3
3,137	29,5	-0,2
3,1375	35,4	-2,1
3,138	39,6	-4,9
3,1385	42,0	-7,7
3,139	42,2	-10,0
3,1395	39,6	-11,3
3,14	34,7	-11,1
3,1405	28,5	-9,7
3,141	21,8	-7,9
3,1415	14,4	-6,4
3,142	6,6	-5,8
3,1425	-0,9	-6,2
3,143	-7,1	-7,3
3,1435	-11,8	-9,0
3,144	-14,8	-11,0
3,1445	-15,7	-12,8
3,145	-13,4	-14,2
3,1455	-7,6	-15,0
3,146	0,8	-15,6
3,1465	10,5	-15,8
3,147	20,0	-15,3
3,1475	28,4	-14,0
3,148	34,5	-12,5
3,1485	36,7	-11,7
3,149	34,9	-11,8
3,1495	30,2	-12,3
3,15	25,0	-12,1
3,1505	21,3	-11,1
3,151	19,8	-9,5
3,1515	20,7	-7,8
3,152	23,2	-5,8
3,1525	26,3	-3,6
3,153	28,9	-0,6
3,1535	29,8	2,9
3,154	28,7	6,5
3,1545	26,3	9,3
3,155	23,8	10,5
3,1555	22,5	9,8
3,156	22,6	8,0
3,1565	24,1	6,1
3,157	26,7	5,3
3,1575	29,6	5,8
3,158	31,6	6,6
3,1585	31,9	6,8
3,159	30,3	5,9
3,1595	27,7	4,3
3,16	24,4	2,4
3,1605	21,1	0,8
3,161	18,1	-0,4
3,1615	16,1	-1,3
3,162	15,2	-1,5
3,1625	15,3	-0,7
3,163	16,3	1,0
3,1635	18,4	3,0
3,164	21,7	4,9
3,1645	25,4	6,3
3,165	28,1	6,7
3,1655	28,5	6,0
3,166	26,5	4,7
3,1665	23,1	3,6
3,167	19,7	3,2
3,1675	17,0	3,1
3,168	15,3	2,9
3,1685	14,5	2,4
3,169	14,8	2,1
3,1695	16,3	2,5
3,17	18,4	3,3
3,1705	20,2	3,8
3,171	21,1	3,4
3,1715	21,1	2,2
3,172	20,4	0,5
3,1725	19,3	-1,0
3,173	18,1	-1,9
3,1735	18,2	-1,9
3,174	19,5	-1,0
3,1745	21,1	0,3
3,175	21,8	1,6
3,1755	21,0	2,3
3,176	19,5	2,2
3,1765	17,6	1,5
3,177	15,5	0,5
3,1775	13,4	-0,4
3,178	11,9	-0,7
3,1785	12,1	0,0
3,179	14,4	1,7
3,1795	18,4	3,9
3,18	23,3	6,1
3,1805	28,1	7,9
3,181	31,9	9,2
3,1815	34,0	9,7
3,182	34,0	9,3
3,1825	32,3	8,3
3,183	29,9	7,0
3,1835	27,2	6,0
3,184	24,1	5,3
3,1845	20,4	4,9
3,185	16,8	4,9
3,1855	14,1	5,5
3,186	12,4	6,5
3,1865	11,2	7,7
3,187	9,3	8,6
3,1875	6,2	9,2
3,188	2,6	9,4
3,1885	-0,8	9,5
3,189	-3,5	9,3
3,1895	-5,2	8,6
3,19	-5,1	7,7
3,1905	-3,0	6,8
3,191	0,4	6,3
3,1915	3,5	5,9
3,192	5,3	5,4
3,1925	6,1	4,9
3,193	6,1	4,1
3,1935	5,3	2,8
3,194	3,8	1,2
3,1945	2,2	-0,3
3,195	1,8	-0,7
3,1955	3,1	0,1
3,196	5,8	1,6
3,1965	8,9	3,2
3,197	12,0	4,5
3,1975	14,9	5,5
3,198	17,5	6,2
3,1985	19,1	6,3
3,199	19,4	5,9
3,1995	18,8	5,3
3,2	17,6	4,9
3,2005	15,9	5,0
3,201	14,0	5,4
3,2015	12,8	5,8
3,202	13,0	6,5
3,2025	14,9	7,4
3,203	17,3	8,3
3,2035	18,4	8,5
3,204	17,2	7,7
3,2045	13,2	5,8
3,205	7,5	3,2
3,2055	1,3	0,4
3,206	-4,6	-2,3
3,2065	-8,8	-4,1
3,207	-10,1	-4,8
3,2075	-8,3	-4,4
3,208	-4,6	-3,3
3,2085	-0,5	-2,4
3,209	2,8	-2,0
3,2095	5,0	-2,4
3,21	6,2	-3,7
3,2105	6,8	-5,7
3,211	7,6	-8,0
3,2115	9,3	-9,7
3,212	12,3	-10,0
3,2125	16,3	-9,1
3,213	20,2	-7,3
3,2135	23,1	-5,3
3,214	25,3	-3,6
3,2145	27,1	-2,5
3,215	28,1	-2,5
3,2155	27,8	-3,9
3,216	26,2	-6,4
3,2165	24,1	-9,3
3,217	21,8	-11,3
3,2175	19,1	-11,8
3,218	16,1	-10,3
3,2185	13,3	-7,4
3,219	11,1	-4,0
3,2195	9,6	-1,1
3,22	8,2	0,5
3,2205	6,4	0,7
3,221	4,6	-0,2
3,2215	3,7	-1,4
3,222	4,4	-2,4
3,2225	6,5	-3,5
3,223	9,6	-4,7
3,2235	13,4	-5,7
3,224	17,4	-6,3
3,2245	21,0	-6,7
3,225	23,4	-7,3
3,2255	24,9	-8,1
3,226	26,2	-9,2
3,2265	27,3	-10,3
3,227	28,0	-11,4
3,2275	28,2	-12,4
3,228	28,4	-13,3
3,2285	30,1	-13,8
3,229	34,2	-14,0
3,2295	40,1	-14,1
3,23	46,8	-13,9
3,2305	53,2	-13,8
3,231	58,7	-13,8
3,2315	62,6	-14,4
3,232	64,2	-16,1
3,2325	63,5	-18,2
3,233	61,7	-19,8
3,2335	59,9	-20,1
3,234	58,7	-19,3
3,2345	58,2	-17,7
3,235	58,3	-15,0
3,2355	58,8	-11,1
3,236	58,4	-6,2
3,2365	55,6	-0,8
3,237	48,7	3,6
3,2375	37,6	6,3
3,238	24,3	6,9
3,2385	11,5	6,4
3,239	1,5	5,2
3,2395	-4,8	4,1
3,24	-7,1	3,5
3,2405	-6,3	3,9
3,241	-4,2	4,9
3,2415	-2,4	5,4
3,242	-1,8	4,7
3,2425	-1,9	2,8
3,243	-2,1	0,5
3,2435	-2,4	-1,4
3,244	-3,3	-3,0
3,2445	-5,1	-4,4
3,245	-7,2	-5,6
3,2455	-8,2	-6,3
3,246	-7,1	-6,3
3,2465	-4,0	-5,7
3,247	0,4	-4,7
3,2475	4,9	-3,6
3,248	8,3	-2,6
3,2485	9,3	-2,3
3,249	7,7	-2,7
3,2495	4,5	-3,0
3,25	1,5	-2,8
3,2505	-0,4	-1,9
3,251	-1,0	-0,6
3,2515	0,1	0,6
3,252	2,3	1,7
3,2525	4,6	2,5
3,253	5,5	3,1
3,2535	3,7	2,8
3,254	-1,0	1,8
3,2545	-7,8	0,5
3,255	-15,5	-0,3
3,2555	-23,7	-0,0
3,256	-31,2	1,2
3,2565	-36,4	3,0
3,257	-37,3	5,0
3,2575	-33,7	6,7
3,258	-27,3	7,6
3,2585	-20,8	7,4
3,259	-15,8	6,3
3,2595	-12,6	4,3
3,26	-11,4	1,7
3,2605	-11,7	-1,7
3,261	-12,8	-5,3
3,2615	-14,1	-8,4
3,262	-14,1	-10,4
3,2625	-12,5	-10,8
3,263	-9,4	-9,8
3,2635	-5,2	-8,1
3,264	-0,6	-6,0
3,2645	3,5	-4,3
3,265	5,8	-3,5
3,2655	5,4	-3,7
3,266	3,2	-4,2
3,2665	0,9	-4,3
3,267	-0,1	-3,5
3,2675	0,3	-1,9
3,268	1,3	-0,1
3,2685	2,2	1,5
3,269	2,7	2,8
3,2695	2,7	3,9
3,27	2,1	4,6
3,2705	0,8	4,5
3,271	-0,8	3,4
3,2715	-2,1	1,6
3,272	-2,8	-0,7
3,2725	-2,6	-2,7
3,273	-1,2	-4,2
3,2735	1,7	-4,8
3,274	5,8	-4,6
3,2745	9,8	-3,9
3,275	12,3	-3,2
3,2755	12,9	-2,5
3,276	11,9	-2,1
3,2765	10,1	-2,3
3,277	7,8	-3,2
3,2775	5,3	-4,5
3,278	3,2	-5,9
3,2785	2,4	-6,7
3,279	3,1	-6,7
3,2795	4,7	-5,9
3,28	6,0	-4,4
3,2805	7,1	-2,2
3,281	8,6	0,4
3,2815	10,5	2,7
3,282	12,3	3,9
3,2825	13,2	4,1
3,283	13,3	3,4
3,2835	12,8	2,6
3,284	11,8	1,7
3,2845	10,7	0,9
3,285	10,1	0,3
3,2855	10,5	0,3
3,286	11,6	0,6
3,2865	12,2	0,8
3,287	10,8	0,7
3,2875	7,0	-0,0
3,288	1,7	-1,1
3,2885	-3,9	-2,3
3,289	-8,5	-3,6
3,2895	-11,3	-4,5
3,29	-11,2	-4,7
3,2905	-7,8	-3,7
3,291	-2,1	-2,1
3,2915	3,9	-0,5
3,292	7,9	0,7
3,2925	9,4	1,7
3,293	8,6	2,3
3,2935	6,0	2,1
3,294	2,5	1,1
3,2945	-0,7	-0,7
3,295	-1,6	-2,4
3,2955	0,9	-3,3
3,296	6,4	-3,4
3,2965	13,1	-3,1
3,297	19,2	-2,5
3,2975	23,6	-1,7
3,298	25,4	-1,0
3,2985	24,4	-1,1
3,299	20,9	-2,2
3,2995	16,6	-3,9
3,3	13,0	-5,4
3,3005	11,3	-6,3
3,301	11,6	-6,8
3,3015	13,9	-7,0
3,302	18,3	-7,4
3,3025	24,4	-7,7
3,303	31,0	-7,8
3,3035	35,9	-7,9
3,304	37,6	-8,2
3,3045	35,6	-8,9
3,305	30,9	-10,1
3,3055	24,7	-11,4
3,306	18,3	-12,8
3,3065	13,0	-13,5
3,307	10,3	-13,1
3,3075	10,1	-11,6
3,308	11,2	-9,6
3,3085	11,9	-8,1
3,309	11,3	-7,3
3,3095	9,7	-6,8
3,31	7,2	-6,4
3,3105	4,3	-6,1
3,311	1,5	-5,8
3,3115	-0,3	-5,6
3,312	0,0	-5,3
3,3125	2,5	-4,8
3,313	6,5	-4,3
3,3135	11,2	-3,8
3,314	15,4	-3,6
3,3145	18,6	-3,6
3,315	19,7	-4,3
3,3155	18,1	-5,8
3,316	14,5	-7,5
3,3165	10,2	-8,6
3,317	6,3	-8,2
3,3175	3,2	-6,6
3,318	0,9	-4,4
3,3185	0,1	-2,0
3,319	1,2	0,1
3,3195	3,9	1,8
3,32	6,9	2,7
3,3205	8,3	2,6
3,321	7,6	1,6
3,3215	5,0	0,2
3,322	1,2	-1,2
3,3225	-2,6	-2,5
3,323	-5,3	-3,6
3,3235	-5,6	-4,1
3,324	-3,2	-4,2
3,3245	0,6	-4,2
3,325	3,8	-4,5
3,3255	5,2	-5,3
3,326	5,1	-6,4
3,3265	3,8	-7,4
3,327	1,0	-8,0
3,3275	-3,0	-8,0
3,328	-7,8	-7,6
3,3285	-11,6	-6,5
3,329	-13,6	-5,1
3,3295	-14,2	-3,4
3,33	-14,5	-2,0
3,3305	-15,4	-1,1
3,331	-16,7	-1,0
3,3315	-18,5	-1,5
3,332	-21,0	-2,8
3,3325	-23,8	-4,4
3,333	-26,0	-6,2
3,3335	-26,9	-7,5
3,334	-26,3	-8,5
3,3345	-24,4	-9,0
3,335	-21,0	-9,2
3,3355	-15,9	-9,0
3,336	-9,3	-8,5
3,3365	-2,0	-7,8
3,337	4,3	-7,3
3,3375	8,9	-7,1
3,338	12,0	-7,6
3,3385	14,3	-8,2
3,339	16,0	-8,3
3,3395	17,3	-7,6
3,34	18,9	-5,9
3,3405	21,7	-3,8
3,341	25,5	-2,1
3,3415	28,8	-1,4
3,342	30,1	-1,7
3,3425	28,3	-2,3
3,343	23,7	-2,7
3,3435	16,6	-2,9
3,344	8,0	-3,3
3,3445	-0,9	-4,2
3,345	-8,5	-5,3
3,3455	-13,1	-6,0
3,346	-14,2	-5,8
3,3465	-12,4	-4,8
3,347	-9,3	-3,5
3,3475	-5,8	-2,1
3,348	-2,9	-0,8
3,3485	-1,5	-0,1
3,349	-2,2	-0,3
3,3495	-4,7	-1,0
3,35	-7,6	-1,6
3,3505	-9,6	-1,8
3,351	-10,0	-1,3
3,3515	-8,8	0,0
3,352	-6,6	1,8
3,3525	-4,3	4,0
3,353	-3,3	5,9
3,3535	-4,9	7,3
3,354	-9,8	7,9
3,3545	-17,1	8,0
3,355	-24,6	7,7
3,3555	-30,8	6,8
3,356	-35,3	5,5
3,3565	-37,8	4,0
3,357	-38,3	3,4
3,3575	-36,7	4,1
3,358	-33,8	5,5
3,3585	-30,3	6,5
3,359	-26,2	6,8
3,3595	-21,4	6,8
3,36	-16,5	6,7
3,3605	-12,5	6,6
3,361	-10,0	6,6
3,3615	-9,0	6,7
3,362	-8,3	7,0
3,3625	-7,0	7,7
3,363	-5,1	8,7
3,3635	-3,1	10,2
3,364	-0,9	11,9
3,3645	1,6	13,7
3,365	3,8	15,3
3,3655	5,0	16,5
3,366	5,6	17,3
3,3665	6,6	17,8
3,367	8,6	18,1
3,3675	11,2	18,1
3,368	13,7	17,9
3,3685	16,3	17,8
3,369	19,2	17,9
3,3695	22,4	18,0
3,37	25,3	17,8
3,3705	27,5	16,9
3,371	28,7	15,6
3,3715	29,0	13,7
3,372	28,8	11,4
3,3725	28,2	9,1
3,373	27,7	7,1
3,3735	27,9	6,1
3,374	29,2	6,2
3,3745	30,3	7,1
3,375	29,6	8,2
3,3755	26,6	8,9
3,376	21,9	9,4
3,3765	16,4	9,6
3,377	9,9	9,3
3,3775	2,4	8,6
3,378	-5,3	7,7
3,3785	-11,6	6,9
3,379	-15,1	6,6
3,3795	-15,8	6,4
3,38	-14,2	6,3
3,3805	-10,8	6,1
3,381	-6,3	5,8
3,3815	-2,0	5,2
3,382	0,8	3,9
3,3825	1,8	2,1
3,383	2,5	0,4
3,3835	4,4	-0,6
3,384	8,2	-0,8
3,3845	13,5	-0,4
3,385	19,9	0,5
3,3855	26,7	1,7
3,386	33,2	2,9
3,3865	38,2	3,8
3,387	40,5	3,7
3,3875	39,8	3,0
3,388	36,6	2,2
3,3885	31,5	2,1
3,389	25,4	2,4
3,3895	18,6	2,9
3,39	12,0	3,7
3,3905	6,3	5,0
3,391	1,5	6,9
3,3915	-3,3	9,1
3,392	-8,7	10,9
3,3925	-14,5	12,0
3,393	-19,6	12,3
3,3935	-23,1	11,9
3,394	-24,5	10,8
3,3945	-24,0	9,1
3,395	-22,1	7,3
3,3955	-18,9	5,8
3,396	-15,1	4,9
3,3965	-11,3	4,6
3,397	-8,1	5,1
3,3975	-5,2	6,6
3,398	-3,0	8,8
3,3985	-2,6	10,8
3,399	-4,3	11,6
3,3995	-7,6	10,7
3,4	-10,7	9,0
3,4005	-12,7	7,4
3,401	-13,5	6,5
3,4015	-13,3	6,4
3,402	-11,9	7,0
3,4025	-9,3	7,8
3,403	-5,9	8,6
3,4035	-3,3	8,8
3,404	-2,7	8,3
3,4045	-3,7	6,9
3,405	-5,7	5,1
3,4055	-8,1	3,2
3,406	-11,2	1,5
3,4065	-14,4	0,5
3,407	-16,3	0,5
3,4075	-16,3	1,3
3,408	-15,3	2,2
3,4085	-14,5	2,6
3,409	-14,7	2,3
3,4095	-15,4	1,3
3,41	-16,6	-0,3
3,4105	-18,3	-2,3
3,411	-20,0	-4,4
3,4115	-21,3	-6,0
3,412	-21,2	-6,7
3,4125	-18,9	-6,3
3,413	-14,6	-4,9
3,4135	-8,9	-3,2
3,414	-2,8	-1,4
3,4145	2,8	-0,0
3,415	6,7	0,7
3,4155	7,8	0,5
3,416	6,5	0,0
3,4165	4,3	-0,4
3,417	2,4	-0,4
3,4175	1,6	0,1
3,418	1,6	0,9
3,4185	2,7	2,0
3,419	5,0	3,3
3,4195	7,9	4,5
3,42	10,2	5,3
3,4205	10,7	5,1
3,421	9,6	4,0
3,4215	7,9	2,3
3,422	6,3	0,3
3,4225	5,4	-1,3
3,423	5,3	-2,1
3,4235	6,3	-1,5
3,424	8,7	0,1
3,4245	11,3	2,0
3,425	12,9	3,1
3,4255	12,3	3,2
3,426	9,4	2,5
3,4265	4,3	1,4
3,427	-2,5	0,2
3,4275	-10,0	-1,1
3,428	-16,9	-2,1
3,4285	-21,8	-2,9
3,429	-23,6	-3,3
3,4295	-22,6	-3,5
3,43	-19,7	-3,6
3,4305	-16,2	-3,2
3,431	-12,8	-2,2
3,4315	-10,7	-1,0
3,432	-11,7	-0,5
3,4325	-16,7	-1,5
3,433	-25,3	-3,7
3,4335	-35,4	-6,1
