Interval=	0,0005 s
ExcelDateTime=	4,5911495564365352e+004	11/09/2025 11:53:36,761166
TimeFormat=	StartOfBlock
DateFormat=	
ChannelTitle=	Biceps	Triceps
Range=	1000,0 µV	1000,0 µV
0	-0,1	-0,7
0,0005	-1,3	-8,4
0,001	-5,4	-30,3
0,0015	-13,1	-65,5
0,002	-23,5	-103,6
0,0025	-34,7	-132,6
0,003	-44,7	-148,8
0,0035	-51,0	-154,6
0,004	-52,1	-153,5
0,0045	-48,3	-148,9
0,005	-41,7	-143,5
0,0055	-34,4	-139,1
0,006	-27,6	-136,7
0,0065	-22,0	-136,3
0,007	-18,6	-138,1
0,0075	-18,1	-141,8
0,008	-19,9	-146,0
0,0085	-22,2	-149,1
0,009	-22,9	-149,6
0,0095	-20,6	-147,4
0,01	-15,2	-143,3
0,0105	-7,4	-138,8
0,011	1,4	-135,1
0,0115	8,8	-133,0
0,012	12,0	-132,9
0,0125	10,1	-134,3
0,013	4,3	-136,1
0,0135	-1,8	-137,4
0,014	-5,6	-137,8
0,0145	-6,3	-137,7
0,015	-4,4	-137,3
0,0155	-0,4	-136,4
0,016	4,9	-134,7
0,0165	10,0	-132,6
0,017	12,9	-131,2
0,0175	12,9	-131,4
0,018	10,8	-132,8
0,0185	7,8	-134,7
0,019	4,6	-136,4
0,0195	1,4	-138,0
0,02	-1,1	-139,3
0,0205	-1,9	-139,6
0,021	-0,9	-138,7
0,0215	1,1	-137,4
0,022	2,6	-136,8
0,0225	2,8	-137,0
0,023	1,6	-137,8
0,0235	-1,4	-139,1
0,024	-6,2	-140,8
0,0245	-12,1	-142,9
0,025	-17,7	-144,4
0,0255	-21,2	-144,8
0,026	-21,7	-144,0
0,0265	-19,7	-142,5
0,027	-15,9	-141,3
0,0275	-11,1	-140,3
0,028	-6,5	-139,9
0,0285	-3,6	-140,3
0,029	-3,9	-142,1
0,0295	-7,4	-144,7
0,03	-12,2	-147,3
0,0305	-16,1	-149,2
0,031	-17,9	-150,4
0,0315	-17,3	-151,4
0,032	-14,1	-151,8
0,0325	-8,3	-151,4
0,033	-0,7	-150,4
0,0335	7,1	-149,5
0,034	12,8	-149,5
0,0345	15,9	-150,4
0,035	16,5	-152,0
0,0355	15,2	-154,0
0,036	12,5	-155,9
0,0365	9,4	-157,4
0,037	7,7	-157,9
0,0375	8,7	-157,4
0,038	11,5	-156,9
0,0385	14,1	-157,1
0,039	14,6	-158,3
0,0395	12,6	-160,0
0,04	8,7	-161,7
0,0405	3,4	-163,7
0,041	-2,5	-166,1
0,0415	-8,0	-168,6
0,042	-11,3	-170,2
0,0425	-11,7	-170,1
0,043	-9,4	-168,5
0,0435	-5,3	-166,0
0,044	0,5	-163,3
0,0445	7,5	-160,9
0,045	13,4	-159,4
0,0455	15,1	-159,6
0,046	11,3	-161,3
0,0465	3,2	-163,7
0,047	-6,5	-165,5
0,0475	-15,3	-166,3
0,048	-21,8	-166,4
0,0485	-24,8	-165,2
0,049	-24,1	-162,4
0,0495	-20,3	-158,1
0,05	-15,5	-153,4
0,0505	-12,2	-150,4
0,051	-11,2	-150,3
0,0515	-11,9	-152,8
0,052	-13,0	-156,1
0,0525	-13,7	-158,8
0,053	-12,8	-160,1
0,0535	-9,0	-159,8
0,054	-1,3	-158,3
0,0545	8,8	-156,5
0,055	18,5	-155,5
0,0555	25,3	-155,7
0,056	28,5	-156,5
0,0565	28,1	-157,8
0,057	23,9	-159,3
0,0575	16,1	-161,0
0,058	6,0	-162,4
0,0585	-4,0	-162,8
0,059	-11,3	-162,0
0,0595	-14,7	-160,5
0,06	-14,3	-158,8
0,0605	-10,7	-157,0
0,061	-5,0	-154,8
0,0615	1,2	-152,6
0,062	5,5	-151,4
0,0625	6,7	-151,7
0,063	5,3	-153,0
0,0635	3,3	-154,7
0,064	2,5	-156,0
0,0645	3,1	-157,0
0,065	4,9	-157,4
0,0655	8,1	-157,1
0,066	12,6	-155,9
0,0665	17,6	-154,4
0,067	21,7	-153,6
0,0675	23,1	-154,3
0,068	21,8	-156,4
0,0685	18,8	-159,4
0,069	15,1	-162,6
0,0695	11,4	-165,2
0,07	8,8	-166,6
0,0705	8,3	-166,2
0,071	9,8	-164,3
0,0715	12,1	-161,6
0,072	13,3	-159,0
0,0725	12,9	-157,1
0,073	11,3	-156,0
0,0735	8,1	-155,9
0,074	2,5	-156,7
0,0745	-5,6	-157,7
0,075	-14,9	-158,3
0,0755	-23,1	-157,7
0,076	-28,2	-156,3
0,0765	-30,1	-154,8
0,077	-29,2	-153,6
0,0775	-25,9	-152,9
0,078	-20,7	-152,4
0,0785	-14,9	-152,3
0,079	-10,2	-152,5
0,0795	-7,6	-152,9
0,08	-7,0	-153,3
0,0805	-7,8	-153,7
0,081	-9,5	-154,1
0,0815	-11,4	-154,5
0,082	-12,5	-154,3
0,0825	-11,9	-153,3
0,083	-9,9	-151,6
0,0835	-8,1	-150,1
0,084	-8,0	-149,8
0,0845	-10,3	-150,6
0,085	-14,1	-152,2
0,0855	-18,0	-154,0
0,086	-21,3	-155,6
0,0865	-23,3	-156,5
0,087	-23,3	-156,1
0,0875	-21,3	-154,5
0,088	-18,5	-152,4
0,0885	-17,0	-150,7
0,089	-17,8	-149,9
0,0895	-20,7	-149,7
0,09	-25,1	-150,1
0,0905	-30,6	-151,1
0,091	-36,5	-152,5
0,0915	-41,6	-153,6
0,092	-44,1	-153,6
0,0925	-43,0	-152,3
0,093	-38,7	-150,0
0,0935	-32,3	-147,4
0,094	-24,2	-145,1
0,0945	-15,1	-143,5
0,095	-6,1	-143,1
0,0955	1,1	-144,2
0,096	5,8	-146,4
0,0965	8,8	-149,0
0,097	11,3	-151,2
0,0975	13,8	-152,7
0,098	16,0	-153,5
0,0985	18,5	-153,0
0,099	22,1	-151,3
0,0995	27,5	-148,9
0,1	33,6	-146,8
0,1005	37,9	-146,1
0,101	38,0	-147,0
0,1015	32,8	-148,9
0,102	23,1	-151,3
0,1025	10,0	-154,0
0,103	-4,4	-156,5
0,1035	-17,0	-158,0
0,104	-25,7	-158,1
0,1045	-30,3	-156,7
0,105	-32,3	-154,5
0,1055	-33,4	-152,1
0,106	-33,9	-150,1
0,1065	-34,1	-149,3
0,107	-34,1	-150,2
0,1075	-34,4	-152,5
0,108	-34,8	-155,4
0,1085	-34,1	-157,6
0,109	-30,8	-158,2
0,1095	-25,2	-157,3
0,11	-18,0	-155,5
0,1105	-10,6	-153,4
0,111	-3,3	-151,7
0,1115	3,5	-151,0
0,112	8,5	-151,8
0,1125	10,8	-154,0
0,113	11,1	-156,8
0,1135	10,7	-158,9
0,114	10,7	-159,7
0,1145	11,2	-159,2
0,115	12,4	-157,8
0,1155	15,8	-155,6
0,116	22,3	-152,5
0,1165	31,0	-149,3
0,117	39,3	-147,1
0,1175	45,1	-146,7
0,118	48,1	-148,0
0,1185	48,5	-150,3
0,119	46,3	-152,9
0,1195	41,6	-155,3
0,12	35,2	-157,1
0,1205	29,2	-157,7
0,121	25,0	-157,6
0,1215	22,8	-157,6
0,122	21,9	-158,4
0,1225	21,7	-160,1
0,123	21,4	-162,2
0,1235	19,9	-164,5
0,124	16,3	-167,2
0,1245	10,8	-169,9
0,125	5,2	-172,0
0,1255	1,6	-172,8
0,126	1,4	-172,2
0,1265	3,9	-170,4
0,127	7,7	-168,2
0,1275	11,0	-165,5
0,128	12,5	-162,5
0,1285	11,2	-160,0
0,129	6,9	-159,0
0,1295	0,9	-159,4
0,13	-4,9	-160,3
0,1305	-9,0	-160,9
0,131	-10,9	-161,0
0,1315	-10,6	-160,7
0,132	-8,0	-160,0
0,1325	-2,6	-159,2
0,133	4,9	-158,5
0,1335	12,8	-158,5
0,134	18,9	-159,5
0,1345	22,6	-161,5
0,135	23,9	-163,8
0,1355	23,5	-166,1
0,136	21,6	-168,2
0,1365	19,0	-169,8
0,137	17,1	-169,8
0,1375	16,5	-168,4
0,138	16,7	-166,2
0,1385	16,4	-164,0
0,139	15,1	-162,3
0,1395	13,0	-161,0
0,14	10,0	-160,4
0,1405	5,6	-160,9
0,141	-0,4	-162,2
0,1415	-7,4	-163,5
0,142	-13,9	-163,5
0,1425	-18,6	-161,9
0,143	-20,7	-159,1
0,1435	-20,3	-156,0
0,144	-17,5	-153,3
0,1445	-13,3	-151,1
0,145	-9,7	-149,9
0,1455	-9,0	-150,1
0,146	-11,8	-151,3
0,1465	-16,4	-152,9
0,147	-20,4	-154,2
0,1475	-22,0	-154,8
0,148	-20,7	-154,4
0,1485	-16,1	-152,8
0,149	-8,6	-150,3
0,1495	0,5	-147,6
0,15	8,7	-145,6
0,1505	13,5	-145,2
0,151	14,1	-146,7
0,1515	11,2	-149,4
0,152	6,5	-152,8
0,1525	0,9	-155,9
0,153	-4,4	-158,3
0,1535	-8,1	-159,1
0,154	-8,9	-158,1
0,1545	-7,2	-156,1
0,155	-4,5	-154,2
0,1555	-2,2	-153,3
0,156	-1,1	-153,3
0,1565	-1,5	-154,1
0,157	-4,0	-155,6
0,1575	-8,9	-157,7
0,158	-15,6	-159,8
0,1585	-22,1	-161,0
0,159	-26,3	-160,4
0,1595	-27,3	-158,0
0,16	-26,2	-154,9
0,1605	-24,2	-152,1
0,161	-22,8	-150,3
0,1615	-23,0	-150,1
0,162	-25,5	-151,8
0,1625	-30,2	-154,8
0,163	-35,5	-157,7
0,1635	-40,0	-159,3
0,164	-42,7	-159,5
0,1645	-43,5	-158,8
0,165	-41,8	-157,7
0,1655	-37,5	-155,8
0,166	-31,3	-153,3
0,1665	-24,4	-150,8
0,167	-18,9	-149,1
0,1675	-16,0	-148,9
0,168	-15,9	-149,9
0,1685	-18,3	-151,4
0,169	-22,7	-152,8
0,1695	-27,8	-153,9
0,17	-31,9	-154,5
0,1705	-33,1	-153,8
0,171	-31,3	-152,2
0,1715	-27,8	-150,5
0,172	-24,7	-149,7
0,1725	-22,6	-150,0
0,173	-21,2	-150,9
0,1735	-21,2	-152,3
0,174	-23,2	-153,7
0,1745	-27,7	-154,8
0,175	-33,7	-155,3
0,1755	-38,8	-154,8
0,176	-41,1	-153,7
0,1765	-40,4	-152,3
0,177	-37,4	-150,8
0,1775	-33,7	-149,5
0,178	-30,9	-148,3
0,1785	-31,0	-148,0
0,179	-34,8	-148,7
0,1795	-40,3	-150,0
0,18	-44,4	-151,0
0,1805	-45,1	-150,7
0,181	-42,7	-149,2
0,1815	-38,4	-146,8
0,182	-33,0	-143,8
0,1825	-26,5	-140,6
0,183	-19,7	-138,0
0,1835	-14,2	-136,6
0,184	-11,6	-136,9
0,1845	-12,3	-138,6
0,185	-14,9	-140,9
0,1855	-17,7	-142,9
0,186	-19,9	-144,5
0,1865	-21,2	-145,2
0,187	-20,6	-144,3
0,1875	-17,8	-141,8
0,188	-13,0	-138,6
0,1885	-7,4	-136,2
0,189	-2,1	-135,2
0,1895	2,5	-135,4
0,19	6,1	-136,6
0,1905	8,2	-138,7
0,191	8,3	-141,4
0,1915	6,5	-144,3
0,192	4,3	-146,2
0,1925	2,7	-146,3
0,193	1,9	-145,1
0,1935	1,5	-143,2
0,194	1,5	-141,1
0,1945	1,5	-139,3
0,195	0,6	-138,5
0,1955	-2,9	-139,1
0,196	-9,5	-140,5
0,1965	-18,6	-141,8
0,197	-28,9	-142,4
0,1975	-39,0	-142,3
0,198	-47,3	-142,0
0,1985	-51,8	-141,7
0,199	-51,6	-141,0
0,1995	-47,1	-140,1
0,2	-39,8	-139,2
0,2005	-31,9	-139,2
0,201	-25,0	-140,0
0,2015	-19,7	-141,7
0,202	-16,1	-143,7
0,2025	-14,7	-145,8
0,203	-14,8	-147,4
0,2035	-15,0	-148,0
0,204	-13,4	-147,0
0,2045	-9,8	-144,9
0,205	-5,5	-142,8
0,2055	-2,5	-141,3
0,206	-1,5	-140,9
0,2065	-2,4	-141,3
0,207	-5,4	-142,3
0,2075	-10,2	-143,6
0,208	-15,6	-144,6
0,2085	-19,4	-144,4
0,209	-19,3	-142,6
0,2095	-14,9	-139,3
0,21	-7,8	-135,2
0,2105	0,1	-131,1
0,211	7,3	-127,3
0,2115	12,4	-124,1
0,212	13,7	-121,9
0,2125	10,6	-121,0
0,213	5,0	-121,1
0,2135	-0,9	-121,8
0,214	-5,8	-122,8
0,2145	-9,4	-123,5
0,215	-11,4	-123,7
0,2155	-11,1	-123,1
0,216	-8,5	-122,2
0,2165	-4,5	-121,4
0,217	-1,0	-121,6
0,2175	0,3	-122,7
0,218	-0,9	-124,2
0,2185	-4,3	-125,6
0,219	-8,9	-126,7
0,2195	-13,8	-127,2
0,22	-17,8	-126,9
0,2205	-19,5	-125,6
0,221	-18,8	-123,4
0,2215	-17,0	-121,0
0,222	-15,2	-119,2
0,2225	-14,1	-118,4
0,223	-13,8	-118,6
0,2235	-14,5	-120,0
0,224	-16,9	-122,3
0,2245	-20,7	-125,0
0,225	-24,7	-127,2
0,2255	-26,7	-128,1
0,226	-25,7	-127,3
0,2265	-22,1	-125,4
0,227	-17,1	-122,8
0,2275	-11,7	-119,6
0,228	-6,6	-116,5
0,2285	-2,9	-114,4
0,229	-1,4	-114,0
0,2295	-1,7	-114,8
0,23	-2,6	-115,8
0,2305	-3,2	-116,3
0,231	-3,7	-116,1
0,2315	-4,2	-115,5
0,232	-4,0	-114,6
0,2325	-2,7	-113,3
0,233	-0,8	-111,4
0,2335	0,3	-109,8
0,234	-0,9	-109,0
0,2345	-4,4	-109,2
0,235	-9,3	-110,1
0,2355	-14,3	-111,4
0,236	-18,1	-113,0
0,2365	-19,7	-114,9
0,237	-17,8	-116,4
0,2375	-12,4	-116,8
0,238	-5,3	-115,9
0,2385	1,1	-114,2
0,239	4,7	-112,2
0,2395	5,3	-110,4
0,24	2,9	-109,5
0,2405	-2,0	-109,9
0,241	-8,8	-111,6
0,2415	-15,6	-113,7
0,242	-20,3	-114,9
0,2425	-21,6	-114,5
0,243	-19,8	-112,5
0,2435	-15,8	-109,8
0,244	-10,4	-107,2
0,2445	-4,2	-105,2
0,245	1,7	-104,2
0,2455	5,6	-104,5
0,246	7,2	-105,9
0,2465	7,5	-107,6
0,247	8,2	-108,9
0,2475	9,9	-109,4
0,248	12,4	-109,7
0,2485	15,6	-109,4
0,249	19,7	-108,2
0,2495	24,1	-106,1
0,25	27,3	-103,9
0,2505	27,8	-102,6
0,251	25,0	-102,5
0,2515	20,1	-103,4
0,252	14,3	-105,1
0,2525	8,4	-107,0
0,253	3,3	-108,5
0,2535	0,0	-108,8
0,254	-1,1	-107,7
0,2545	-1,1	-105,9
0,255	-1,5	-104,6
0,2555	-3,0	-104,6
0,256	-5,3	-105,7
0,2565	-8,0	-107,6
0,257	-11,5	-110,0
0,2575	-16,5	-112,9
0,258	-22,7	-116,1
0,2585	-28,4	-118,7
0,259	-31,9	-120,3
0,2595	-32,8	-120,9
0,26	-31,5	-120,6
0,2605	-28,6	-119,8
0,261	-25,0	-119,0
0,2615	-22,1	-118,7
0,262	-21,5	-119,4
0,2625	-23,7	-121,1
0,263	-26,9	-123,0
0,2635	-28,8	-124,1
0,264	-28,6	-123,9
0,2645	-26,7	-122,9
0,265	-23,7	-121,3
0,2655	-19,2	-119,2
0,266	-13,2	-116,7
0,2665	-7,0	-114,3
0,267	-2,8	-113,2
0,2675	-1,5	-113,8
0,268	-2,7	-115,5
0,2685	-5,2	-117,8
0,269	-8,7	-120,2
0,2695	-12,6	-122,5
0,27	-15,6	-124,3
0,2705	-15,7	-124,9
0,271	-12,4	-124,5
0,2715	-7,0	-123,8
0,272	-1,6	-123,6
0,2725	2,3	-123,7
0,273	4,0	-123,9
0,2735	2,5	-124,4
0,274	-2,3	-125,5
0,2745	-9,8	-127,1
0,275	-18,1	-128,3
0,2755	-24,6	-128,5
0,276	-27,5	-127,4
0,2765	-26,5	-125,7
0,277	-22,4	-124,1
0,2775	-16,4	-122,6
0,278	-10,2	-121,1
0,2785	-5,7	-120,3
0,279	-4,4	-120,7
0,2795	-5,5	-122,0
0,28	-7,2	-123,4
0,2805	-8,0	-124,6
0,281	-7,4	-125,4
0,2815	-5,7	-125,8
0,282	-3,1	-125,4
0,2825	-0,2	-124,3
0,283	1,8	-122,9
0,2835	1,4	-122,2
0,284	-1,7	-123,0
0,2845	-7,0	-125,0
0,285	-13,5	-127,5
0,2855	-20,9	-130,2
0,286	-29,2	-132,7
0,2865	-36,9	-134,4
0,287	-42,2	-134,4
0,2875	-43,7	-132,7
0,288	-41,9	-130,0
0,2885	-38,4	-127,7
0,289	-34,6	-126,7
0,2895	-31,2	-127,1
0,29	-28,9	-128,8
0,2905	-28,4	-131,6
0,291	-29,7	-134,6
0,2915	-31,5	-137,0
0,292	-31,3	-138,2
0,2925	-27,5	-138,0
0,293	-20,5	-137,0
0,2935	-11,8	-135,7
0,294	-2,8	-134,3
0,2945	5,4	-133,1
0,295	10,8	-132,1
0,2955	12,0	-131,7
0,296	8,8	-131,7
0,2965	3,3	-131,8
0,297	-2,0	-132,0
0,2975	-4,7	-132,6
0,298	-4,3	-133,3
0,2985	-1,2	-133,5
0,299	3,8	-132,7
0,2995	9,4	-130,7
0,3	13,5	-128,7
0,3005	14,6	-127,7
0,301	12,4	-128,8
0,3015	7,6	-131,9
0,302	1,0	-136,8
0,3025	-7,0	-142,8
0,303	-15,0	-149,0
0,3035	-21,3	-154,2
0,304	-24,1	-157,7
0,3045	-23,4	-159,9
0,305	-20,0	-161,4
0,3055	-15,4	-163,1
0,306	-10,3	-165,3
0,3065	-6,3	-168,2
0,307	-4,6	-171,9
0,3075	-5,7	-176,3
0,308	-8,6	-180,8
0,3085	-11,2	-184,5
0,309	-11,8	-186,6
0,3095	-9,9	-187,5
0,31	-6,5	-187,7
0,3105	-2,5	-187,6
0,311	0,7	-187,4
0,3115	1,3	-187,8
0,312	-2,3	-189,5
0,3125	-9,6	-192,4
0,313	-18,5	-196,2
0,3135	-26,1	-199,9
0,314	-31,1	-203,4
0,3145	-33,5	-206,3
0,315	-33,4	-208,0
0,3155	-30,5	-208,1
0,316	-24,6	-206,8
0,3165	-16,8	-205,1
0,317	-9,6	-204,2
0,3175	-5,2	-204,8
0,318	-4,7	-206,7
0,3185	-8,2	-209,7
0,319	-15,0	-213,1
0,3195	-23,7	-216,4
0,32	-31,4	-218,7
0,3205	-36,1	-219,1
0,321	-37,4	-217,8
0,3215	-37,0	-215,8
0,322	-36,6	-214,3
0,3225	-36,7	-214,1
0,323	-37,4	-215,3
0,3235	-38,3	-217,8
0,324	-38,8	-221,2
0,3245	-37,9	-225,1
0,325	-34,7	-228,6
0,3255	-28,1	-230,8
0,326	-18,3	-231,2
0,3265	-7,1	-230,2
0,327	3,8	-228,5
0,3275	12,7	-226,7
0,328	18,8	-225,6
0,3285	21,2	-225,8
0,329	19,9	-227,7
0,3295	16,3	-230,9
0,33	11,9	-234,1
0,3305	8,4	-236,2
0,331	6,2	-236,9
0,3315	5,4	-236,3
0,332	6,5	-234,3
0,3325	9,5	-231,4
0,333	13,7	-228,3
0,3335	17,7	-225,9
0,334	20,3	-225,1
0,3345	20,8	-225,7
0,335	18,8	-227,2
0,3355	13,8	-229,2
0,336	5,9	-231,4
0,3365	-3,1	-233,3
0,337	-10,7	-234,2
0,3375	-15,0	-234,1
0,338	-16,3	-233,7
0,3385	-15,6	-233,8
0,339	-14,4	-234,7
0,3395	-12,8	-236,4
0,34	-11,6	-238,9
0,3405	-11,4	-241,8
0,341	-12,7	-244,9
0,3415	-14,7	-247,2
0,342	-15,7	-248,3
0,3425	-14,8	-248,0
0,343	-12,3	-246,8
0,3435	-8,5	-245,5
0,344	-3,4	-244,4
0,3445	2,6	-243,7
0,345	8,2	-243,5
0,3455	11,6	-244,1
0,346	12,6	-245,4
0,3465	12,3	-246,9
0,347	12,2	-248,0
0,3475	12,7	-248,6
0,348	13,8	-248,6
0,3485	15,8	-248,1
0,349	19,3	-247,1
0,3495	24,3	-245,8
0,35	29,1	-244,8
0,3505	31,6	-244,9
0,351	30,9	-246,0
0,3515	27,5	-247,9
0,352	23,0	-250,3
0,3525	18,8	-253,3
0,353	15,7	-256,3
0,3535	14,8	-258,4
0,354	16,2	-258,8
0,3545	18,8	-257,7
0,355	21,2	-256,0
0,3555	22,1	-254,7
0,356	21,5	-254,4
0,3565	19,6	-255,2
0,357	15,9	-257,0
0,3575	10,6	-259,6
0,358	4,8	-262,0
0,3585	0,4	-263,3
0,359	-1,1	-262,8
0,3595	0,1	-260,5
0,36	3,1	-256,7
0,3605	6,6	-252,1
0,361	9,8	-247,6
0,3615	11,7	-244,5
0,362	11,1	-243,9
0,3625	7,9	-245,8
0,363	3,4	-249,2
0,3635	-0,8	-252,5
0,364	-3,5	-255,3
0,3645	-4,8	-257,2
0,365	-4,5	-258,2
0,3655	-2,3	-258,0
0,366	1,9	-256,8
0,3665	7,1	-255,4
0,367	10,9	-254,7
0,3675	11,6	-255,2
0,368	8,8	-256,6
0,3685	3,7	-258,4
0,369	-2,2	-260,1
0,3695	-7,3	-261,0
0,37	-10,4	-260,8
0,3705	-9,8	-259,3
0,371	-5,8	-257,2
0,3715	0,0	-255,7
0,372	5,8	-255,0
0,3725	10,4	-254,8
0,373	13,0	-255,2
0,3735	12,7	-256,3
0,374	9,3	-258,5
0,3745	3,6	-261,2
0,375	-2,8	-263,6
0,3755	-7,9	-265,0
0,376	-11,0	-265,2
0,3765	-12,2	-264,1
0,377	-12,2	-261,4
0,3775	-12,3	-257,7
0,378	-13,3	-254,2
0,3785	-16,0	-252,8
0,379	-19,7	-254,0
0,3795	-23,2	-257,0
0,38	-24,7	-260,3
0,3805	-23,5	-262,5
0,381	-20,4	-263,2
0,3815	-16,6	-262,7
0,382	-12,6	-261,3
0,3825	-8,2	-259,3
0,383	-3,3	-257,5
0,3835	0,8	-256,7
0,384	2,6	-257,5
0,3845	1,4	-259,3
0,385	-2,7	-261,6
0,3855	-9,0	-263,6
0,386	-16,4	-264,8
0,3865	-23,7	-264,8
0,387	-29,4	-263,3
0,3875	-32,5	-261,0
0,388	-33,6	-259,3
0,3885	-33,8	-259,0
0,389	-33,7	-260,0
0,3895	-32,7	-261,7
0,39	-30,6	-264,1
0,3905	-27,8	-267,3
0,391	-25,1	-271,1
0,3915	-22,0	-274,3
0,392	-17,3	-276,0
0,3925	-10,4	-275,4
0,393	-2,3	-272,9
0,3935	5,6	-269,3
0,394	12,7	-265,6
0,3945	18,5	-262,4
0,395	22,3	-260,2
0,3955	22,9	-259,3
0,396	20,5	-259,7
0,3965	17,1	-260,8
0,397	15,2	-262,1
0,3975	16,2	-263,0
0,398	20,1	-263,1
0,3985	25,8	-261,8
0,399	32,3	-258,7
0,3995	38,1	-254,2
0,4	41,4	-249,6
0,4005	40,9	-246,7
0,401	37,2	-246,1
0,4015	31,6	-247,6
0,402	25,9	-250,1
0,4025	21,0	-253,1
0,403	18,0	-255,6
0,4035	18,2	-256,8
0,404	22,0	-256,6
0,4045	27,9	-255,3
0,405	34,1	-254,0
0,4055	39,4	-253,2
0,406	43,4	-253,1
0,4065	45,7	-253,7
0,407	45,1	-255,1
0,4075	41,5	-257,0
0,408	35,7	-258,8
0,4085	29,9	-259,7
0,409	26,2	-258,8
0,4095	25,2	-256,2
0,41	26,3	-252,7
0,4105	28,4	-249,4
0,411	30,6	-246,9
0,4115	31,7	-245,3
0,412	31,0	-245,1
0,4125	28,4	-246,1
0,413	25,1	-247,7
0,4135	22,7	-249,2
0,414	21,7	-250,1
0,4145	21,9	-250,8
0,415	23,2	-250,9
0,4155	25,2	-250,1
0,416	27,8	-248,3
0,4165	29,7	-246,3
0,417	29,3	-245,3
0,4175	25,8	-245,6
0,418	19,7	-247,1
0,4185	12,3	-249,1
0,419	5,0	-251,3
0,4195	-1,5	-253,2
0,42	-6,1	-253,8
0,4205	-7,5	-252,8
0,421	-5,8	-250,8
0,4215	-2,3	-249,1
0,422	0,7	-248,5
0,4225	1,9	-249,1
0,423	0,8	-250,6
0,4235	-2,7	-252,9
0,424	-8,3	-255,9
0,4245	-15,1	-258,8
0,425	-21,3	-260,4
0,4255	-24,8	-260,3
0,426	-24,7	-258,4
0,4265	-21,3	-255,8
0,427	-15,3	-253,0
0,4275	-7,9	-250,6
0,428	-0,6	-248,5
0,4285	4,5	-247,2
0,429	6,4	-246,7
0,4295	5,9	-246,6
0,43	5,0	-246,4
0,4305	5,0	-246,0
0,431	5,8	-245,6
0,4315	7,0	-244,9
0,432	9,0	-243,5
0,4325	12,7	-240,8
0,433	17,7	-237,2
0,4335	22,1	-233,8
0,434	23,8	-231,9
0,4345	21,7	-231,6
0,435	15,8	-232,4
0,4355	7,2	-233,9
0,436	-3,2	-235,8
0,4365	-13,3	-237,7
0,437	-21,1	-238,9
0,4375	-25,1	-239,3
0,438	-25,3	-239,1
0,4385	-23,1	-239,1
0,439	-20,7	-239,6
0,4395	-19,5	-240,4
0,44	-20,3	-242,0
0,4405	-22,7	-244,3
0,441	-25,9	-247,2
0,4415	-28,3	-249,7
0,442	-28,0	-250,6
0,4425	-24,1	-249,4
0,443	-17,3	-246,5
0,4435	-8,9	-242,8
0,444	0,5	-238,8
0,4445	9,7	-235,5
0,445	16,8	-233,7
0,4455	20,3	-233,7
0,446	20,4	-234,7
0,4465	19,3	-235,4
0,447	19,3	-235,0
0,4475	21,4	-233,9
0,448	25,8	-232,4
0,4485	32,3	-230,5
0,449	40,4	-227,6
0,4495	49,3	-223,8
0,45	56,7	-220,0
0,4505	61,0	-217,3
0,451	61,5	-216,7
0,4515	59,1	-218,2
0,452	54,8	-221,3
0,4525	49,7	-224,9
0,453	45,0	-228,3
0,4535	42,3	-230,3
0,454	42,5	-231,0
0,4545	44,5	-230,5
0,455	46,5	-229,8
0,4555	46,8	-229,3
0,456	45,2	-229,2
0,4565	41,0	-229,7
0,457	34,2	-231,1
0,4575	25,2	-233,3
0,458	15,8	-235,6
0,4585	8,5	-236,7
0,459	4,7	-235,8
0,4595	4,5	-233,4
0,46	7,2	-230,2
0,4605	12,1	-227,3
0,461	18,1	-225,2
0,4615	23,5	-224,3
0,462	26,3	-225,0
0,4625	25,6	-226,8
0,463	22,8	-229,0
0,4635	20,0	-230,7
0,464	18,9	-231,6
0,4645	19,7	-231,7
0,465	22,5	-231,0
0,4655	27,4	-229,3
0,466	34,0	-226,4
0,4665	40,8	-223,1
0,467	45,6	-220,7
0,4675	47,5	-219,9
0,468	46,9	-220,6
0,4685	44,7	-222,0
0,469	41,7	-223,8
0,4695	38,6	-225,5
0,47	36,3	-226,6
0,4705	36,1	-226,8
0,471	38,0	-225,9
0,4715	40,7	-225,0
0,472	42,8	-224,5
0,4725	43,4	-224,6
0,473	41,9	-225,2
0,4735	38,0	-226,5
0,474	32,2	-228,7
0,4745	25,8	-231,3
0,475	21,0	-233,4
0,4755	19,4	-234,3
0,476	21,0	-233,8
0,4765	24,8	-232,4
0,477	29,4	-230,5
0,4775	34,1	-228,2
0,478	37,9	-226,3
0,4785	39,3	-225,6
0,479	37,4	-226,7
0,4795	33,2	-229,0
0,48	28,6	-231,6
0,4805	25,3	-233,9
0,481	23,8	-235,4
0,4815	24,3	-235,9
0,482	27,0	-235,0
0,4825	31,9	-233,1
0,483	37,8	-230,8
0,4835	42,6	-229,3
0,484	44,6	-229,5
0,4845	43,5	-231,1
0,485	39,7	-233,4
0,4855	33,8	-235,9
0,486	26,8	-238,3
0,4865	20,7	-239,7
0,487	17,4	-239,3
0,4875	17,4	-237,3
0,488	19,2	-234,9
0,4885	20,4	-233,0
0,489	20,1	-232,0
0,4895	17,9	-231,8
0,49	13,8	-232,6
0,4905	7,8	-234,3
0,491	0,8	-236,8
0,4915	-5,0	-239,0
0,492	-7,5	-240,2
0,4925	-5,8	-239,9
0,493	-0,8	-238,6
0,4935	5,6	-236,7
0,494	12,3	-234,8
0,4945	18,5	-233,3
0,495	22,7	-232,9
0,4955	23,6	-233,7
0,496	21,8	-235,4
0,4965	18,9	-237,4
0,497	16,6	-239,1
0,4975	15,2	-240,3
0,498	15,1	-240,7
0,4985	16,7	-240,2
0,499	20,8	-238,6
0,4995	26,9	-236,4
0,5	32,4	-234,7
0,5005	34,3	-234,4
0,501	31,7	-235,5
0,5015	26,3	-237,4
0,502	20,7	-239,5
0,5025	16,0	-241,6
0,503	12,2	-243,5
0,5035	9,8	-244,6
0,504	8,9	-244,6
0,5045	9,1	-243,6
0,505	9,0	-242,0
0,5055	7,5	-240,4
0,506	4,2	-239,1
0,5065	-1,0	-238,5
0,507	-8,2	-238,9
0,5075	-16,9	-240,1
0,508	-25,6	-241,7
0,5085	-31,7	-242,6
0,509	-33,3	-242,1
0,5095	-30,4	-240,5
0,51	-24,4	-238,6
0,5105	-16,7	-236,9
0,511	-9,0	-235,7
0,5115	-3,2	-235,3
0,512	-0,9	-236,3
0,5125	-2,1	-238,3
0,513	-4,6	-240,3
0,5135	-6,3	-241,3
0,514	-5,7	-241,5
0,5145	-3,0	-241,3
0,515	2,1	-240,7
0,5155	9,9	-239,5
0,516	20,2	-237,8
0,5165	31,0	-235,9
0,517	40,0	-234,8
0,5175	45,3	-235,1
0,518	46,8	-236,5
0,5185	45,0	-238,5
0,519	40,5	-240,7
0,5195	35,0	-242,3
0,52	30,8	-243,1
0,5205	29,6	-242,5
0,521	31,7	-241,0
0,5215	35,1	-239,3
0,522	37,4	-238,5
0,5225	37,1	-238,6
0,523	33,8	-239,6
0,5235	27,8	-241,0
0,524	19,7	-242,7
0,5245	10,4	-244,0
0,525	2,0	-244,3
0,5255	-3,7	-243,3
0,526	-6,2	-241,4
0,5265	-5,9	-239,4
0,527	-3,8	-238,0
0,5275	-0,2	-237,2
0,528	3,9	-237,2
0,5285	7,2	-237,8
0,529	8,5	-238,9
0,5295	8,2	-239,8
0,53	7,6	-239,8
0,5305	7,8	-238,8
0,531	8,7	-237,2
0,5315	10,0	-235,1
0,532	11,2	-232,7
0,5325	11,5	-230,0
0,533	10,4	-227,4
0,5335	7,6	-226,1
0,534	3,6	-226,6
0,5345	-0,6	-228,3
0,535	-4,4	-230,5
0,5355	-7,8	-232,3
0,536	-10,7	-233,6
0,5365	-11,8	-234,0
0,537	-9,9	-233,3
0,5375	-4,9	-231,5
0,538	1,7	-229,7
0,5385	7,8	-228,5
0,539	12,6	-228,6
0,5395	16,2	-229,7
0,54	18,8	-231,8
0,5405	20,0	-235,0
0,541	19,8	-238,5
0,5415	19,1	-241,5
0,542	19,4	-243,2
0,5425	21,7	-243,4
0,543	25,3	-242,6
0,5435	28,7	-241,1
0,544	30,3	-239,3
0,5445	29,3	-237,8
0,545	25,5	-236,9
0,5455	19,2	-237,1
0,546	11,9	-238,1
0,5465	5,5	-239,5
0,547	1,4	-241,0
0,5475	0,4	-242,1
0,548	2,3	-242,5
0,5485	7,3	-241,6
0,549	14,4	-239,4
0,5495	22,6	-236,7
0,55	29,7	-234,5
0,5505	33,9	-233,8
0,551	35,4	-234,5
0,5515	34,7	-236,1
0,552	32,7	-237,9
0,5525	29,8	-239,7
0,553	26,7	-241,0
0,5535	24,6	-241,3
0,554	24,4	-240,5
0,5545	25,9	-239,1
0,555	27,6	-237,7
0,5555	28,4	-236,7
0,556	27,9	-236,4
0,5565	26,1	-237,1
0,557	22,1	-238,6
0,5575	15,3	-240,5
0,558	6,2	-242,4
0,5585	-2,3	-243,7
0,559	-7,6	-243,8
0,5595	-8,4	-242,6
0,56	-5,0	-240,4
0,5605	0,8	-237,7
0,561	6,1	-235,2
0,5615	8,3	-233,8
0,562	5,8	-234,2
0,5625	0,5	-236,2
0,563	-4,8	-239,0
0,5635	-7,7	-241,3
0,564	-7,9	-242,8
0,5645	-6,2	-243,3
0,565	-2,6	-242,8
0,5655	2,8	-241,3
0,566	9,8	-239,1
0,5665	16,9	-236,9
0,567	22,1	-235,8
0,5675	24,2	-235,9
0,568	23,7	-237,2
0,5685	21,6	-239,3
0,569	19,3	-241,9
0,5695	17,7	-244,2
0,57	17,9	-245,5
0,5705	20,3	-245,2
0,571	23,8	-243,3
0,5715	27,0	-240,6
0,572	28,6	-238,1
0,5725	28,5	-236,3
0,573	26,6	-235,8
0,5735	22,5	-236,8
0,574	16,1	-239,1
0,5745	8,3	-242,1
0,575	1,5	-244,6
0,5755	-1,8	-245,6
0,576	-1,3	-244,8
0,5765	1,8	-242,6
0,577	5,8	-239,8
0,5775	9,9	-237,2
0,578	13,2	-235,5
0,5785	14,5	-235,6
0,579	13,3	-237,2
0,5795	10,6	-239,6
0,58	7,5	-241,8
0,5805	4,9	-243,1
0,581	3,0	-243,3
0,5815	2,2	-242,8
0,582	3,3	-241,4
0,5825	6,8	-239,7
0,583	11,7	-238,2
0,5835	16,0	-237,6
0,584	17,8	-237,9
0,5845	16,6	-238,8
0,585	12,3	-239,8
0,5855	5,5	-240,9
0,586	-3,0	-242,0
0,5865	-11,1	-242,9
0,587	-16,5	-243,2
0,5875	-18,3	-242,8
0,588	-17,4	-242,3
0,5885	-15,2	-242,1
0,589	-12,5	-242,5
0,5895	-9,7	-243,4
0,59	-7,9	-244,7
0,5905	-7,8	-246,1
0,591	-9,2	-247,1
0,5915	-10,3	-247,4
0,592	-8,8	-246,7
0,5925	-4,4	-245,3
0,593	1,8	-243,6
0,5935	8,3	-241,7
0,594	14,3	-239,8
0,5945	19,3	-238,0
0,595	22,5	-236,9
0,5955	22,7	-236,8
0,596	19,9	-237,2
0,5965	15,2	-237,5
0,597	9,8	-237,1
0,5975	4,2	-235,8
0,598	-1,5	-233,7
0,5985	-6,4	-230,6
0,599	-9,4	-226,9
0,5995	-9,7	-223,3
0,6	-8,0	-220,7
0,6005	-5,8	-220,1
0,601	-4,3	-221,3
0,6015	-3,8	-224,1
0,602	-4,1	-227,5
0,6025	-5,1	-230,9
0,603	-6,3	-233,6
0,6035	-6,7	-234,7
0,604	-5,7	-234,2
0,6045	-3,6	-232,9
0,605	-1,4	-231,8
0,6055	-0,2	-231,4
0,606	-0,6	-231,6
0,6065	-2,8	-232,2
0,607	-6,9	-233,3
0,6075	-12,1	-234,8
0,608	-17,2	-236,1
0,6085	-20,4	-236,4
0,609	-21,0	-235,2
0,6095	-19,3	-232,8
0,61	-16,1	-230,0
0,6105	-11,9	-227,2
0,611	-6,7	-224,7
0,6115	-1,1	-223,4
0,612	3,4	-223,8
0,6125	6,1	-225,6
0,613	7,4	-227,8
0,6135	8,3	-229,4
0,614	9,4	-230,2
0,6145	10,3	-230,2
0,615	10,9	-229,5
0,6155	11,6	-228,0
0,616	11,8	-226,2
0,6165	10,1	-224,8
0,617	4,4	-224,9
0,6175	-5,8	-226,3
0,618	-18,8	-228,6
0,6185	-31,2	-231,1
0,619	-40,7	-233,1
0,6195	-45,9	-234,0
0,62	-46,6	-233,2
0,6205	-42,7	-230,6
0,621	-35,5	-227,3
0,6215	-26,9	-224,7
0,622	-19,1	-223,5
0,6225	-12,8	-223,8
0,623	-9,1	-225,2
0,6235	-8,4	-227,3
0,624	-10,6	-229,6
0,6245	-14,2	-231,3
0,625	-16,5	-231,9
0,6255	-15,1	-231,2
0,626	-9,6	-229,4
0,6265	-1,1	-227,5
0,627	8,7	-226,1
0,6275	18,4	-225,3
0,628	26,4	-225,3
0,6285	30,6	-226,1
0,629	30,1	-227,8
0,6295	26,3	-229,5
0,63	21,5	-230,6
0,6305	17,8	-230,8
0,631	15,4	-230,2
0,6315	14,6	-228,6
0,632	16,1	-226,2
0,6325	20,2	-223,3
0,633	26,0	-221,0
0,6335	30,9	-220,5
0,634	32,7	-222,3
0,6345	30,6	-225,6
0,635	25,3	-229,3
0,6355	18,2	-232,8
0,636	10,9	-235,5
0,6365	5,5	-236,7
0,637	2,9	-236,0
0,6375	2,8	-234,1
0,638	3,8	-231,7
0,6385	5,0	-229,7
0,639	5,6	-228,4
0,6395	5,8	-228,1
0,64	4,9	-229,1
0,6405	2,8	-231,6
0,641	-0,2	-235,1
0,6415	-3,2	-238,4
0,642	-4,4	-240,2
0,6425	-3,4	-240,3
0,643	-0,6	-239,0
0,6435	2,1	-237,1
0,644	3,3	-235,2
0,6445	1,7	-233,7
0,645	-3,4	-233,2
0,6455	-11,3	-233,7
0,646	-20,0	-234,7
0,6465	-27,4	-235,5
0,647	-32,2	-235,6
0,6475	-34,4	-235,2
0,648	-34,7	-234,7
0,6485	-33,0	-234,2
0,649	-29,5	-233,5
0,6495	-24,7	-232,5
0,65	-19,9	-231,9
0,6505	-16,2	-232,0
0,651	-13,9	-232,9
0,6515	-12,5	-234,0
0,652	-11,1	-235,2
0,6525	-9,5	-236,3
0,653	-7,5	-237,3
0,6535	-4,2	-237,4
0,654	0,7	-236,7
0,6545	6,3	-235,5
0,655	11,1	-234,3
0,6555	13,8	-233,7
0,656	14,3	-233,7
0,6565	12,6	-234,2
0,657	8,7	-235,0
0,6575	3,0	-236,0
0,658	-3,4	-236,9
0,6585	-8,6	-237,2
0,659	-11,0	-236,4
0,6595	-10,0	-234,6
0,66	-6,1	-232,6
0,6605	-0,3	-230,8
0,661	5,6	-229,5
0,6615	9,8	-229,2
0,662	10,9	-230,0
0,6625	9,5	-231,6
0,663	7,0	-233,3
0,6635	5,1	-234,4
0,664	4,8	-234,7
0,6645	6,6	-234,5
0,665	11,1	-233,9
0,6655	18,5	-232,6
0,666	27,8	-230,8
0,6665	36,6	-229,1
0,667	42,5	-228,3
0,6675	44,3	-228,9
0,668	42,2	-230,6
0,6685	37,1	-232,8
0,669	30,3	-235,2
0,6695	23,2	-237,3
0,67	17,3	-238,7
0,6705	13,8	-238,8
0,671	12,0	-238,0
0,6715	10,7	-236,8
0,672	8,7	-235,7
0,6725	6,2	-235,2
0,673	3,2	-235,7
0,6735	-0,6	-237,4
0,674	-5,1	-239,7
0,6745	-9,9	-241,8
0,675	-14,5	-243,1
0,6755	-18,2	-243,0
0,676	-20,7	-241,6
0,6765	-21,0	-239,4
0,677	-19,1	-237,0
0,6775	-15,5	-235,0
0,678	-12,1	-233,9
0,6785	-11,1	-234,6
0,679	-13,0	-236,8
0,6795	-16,1	-239,3
0,68	-18,2	-240,8
0,6805	-18,3	-241,1
0,681	-17,0	-240,6
0,6815	-15,1	-239,8
0,682	-12,3	-238,5
0,6825	-8,2	-236,5
0,683	-4,2	-234,5
0,6835	-2,3	-233,2
0,684	-3,6	-233,2
0,6845	-7,4	-233,9
0,685	-12,5	-234,8
0,6855	-17,8	-235,5
0,686	-22,7	-236,3
0,6865	-25,6	-236,8
0,687	-25,3	-236,9
0,6875	-21,8	-236,5
0,688	-16,6	-235,8
0,6885	-11,9	-235,3
0,689	-9,2	-235,0
0,6895	-9,0	-234,9
0,69	-11,0	-235,4
0,6905	-14,6	-236,8
0,691	-18,8	-238,8
0,6915	-22,4	-240,2
0,692	-23,9	-240,1
0,6925	-22,6	-238,7
0,693	-19,3	-236,6
0,6935	-14,7	-234,5
0,694	-9,8	-232,5
0,6945	-5,3	-230,7
0,695	-2,5	-229,5
0,6955	-1,6	-229,2
0,696	-1,9	-229,7
0,6965	-1,9	-230,6
0,697	-0,6	-231,2
0,6975	1,8	-231,4
0,698	5,4	-231,1
0,6985	10,7	-229,8
0,699	17,8	-227,7
0,6995	25,8	-225,1
0,7	32,1	-223,0
0,7005	34,6	-222,4
0,701	32,7	-223,3
0,7015	27,6	-225,2
0,702	20,6	-227,2
0,7025	12,4	-229,2
0,703	4,3	-230,9
0,7035	-1,8	-231,8
0,704	-4,9	-231,9
0,7045	-5,5	-231,5
0,705	-5,5	-231,3
0,7055	-6,5	-231,8
0,706	-9,1	-232,7
0,7065	-14,0	-234,2
0,707	-21,2	-236,4
0,7075	-30,0	-239,2
0,708	-38,6	-241,7
0,7085	-44,4	-243,0
0,709	-45,9	-243,0
0,7095	-44,0	-241,9
0,71	-40,5	-240,5
0,7105	-36,8	-239,1
0,711	-33,4	-237,6
0,7115	-30,5	-236,7
0,712	-28,6	-236,9
0,7125	-27,2	-238,3
0,713	-25,4	-240,2
0,7135	-22,4	-241,9
0,714	-18,5	-243,1
0,7145	-14,2	-243,4
0,715	-8,9	-242,4
0,7155	-2,1	-239,9
0,716	6,0	-236,7
0,7165	13,6	-233,7
0,717	18,7	-232,1
0,7175	20,2	-232,2
0,718	18,5	-233,5
0,7185	14,5	-235,2
0,719	9,3	-236,5
0,7195	4,4	-236,9
0,72	2,0	-236,2
0,7205	2,8	-234,1
0,721	6,1	-231,5
0,7215	10,3	-229,4
0,722	14,2	-228,5
0,7225	16,8	-228,7
0,723	17,3	-229,8
0,7235	15,2	-231,8
0,724	10,7	-234,3
0,7245	5,0	-236,8
0,725	0,4	-238,0
0,7255	-1,9	-237,6
0,726	-2,4	-235,8
0,7265	-2,1	-233,2
0,727	-1,4	-230,3
0,7275	-0,3	-228,0
0,728	0,6	-226,7
0,7285	0,2	-226,8
0,729	-1,5	-228,1
0,7295	-3,7	-229,9
0,73	-5,2	-231,1
0,7305	-5,4	-231,5
0,731	-4,9	-231,1
0,7315	-3,5	-230,0
0,732	-1,0	-228,3
0,7325	2,7	-226,2
0,733	6,7	-224,2
0,7335	9,3	-223,1
0,734	9,2	-223,2
0,7345	6,1	-224,3
0,735	1,0	-226,1
0,7355	-4,6	-227,8
0,736	-9,0	-229,3
0,7365	-10,5	-230,0
0,737	-8,3	-229,5
0,7375	-2,7	-228,1
0,738	4,8	-226,7
0,7385	12,9	-225,8
0,739	20,5	-225,6
0,7395	26,9	-226,3
0,74	30,4	-228,1
0,7405	29,9	-230,7
0,741	24,9	-233,4
0,7415	17,3	-235,0
0,742	9,7	-235,1
0,7425	3,6	-233,6
0,743	-1,0	-231,2
0,7435	-4,9	-228,4
0,744	-8,7	-225,7
0,7445	-13,4	-223,6
0,745	-19,7	-222,8
0,7455	-27,7	-223,6
0,746	-35,7	-225,5
0,7465	-41,6	-227,3
0,747	-44,3	-228,5
0,7475	-44,5	-228,8
0,748	-42,9	-228,1
0,7485	-39,6	-226,4
0,749	-34,9	-224,0
0,7495	-29,2	-221,7
0,75	-24,0	-220,5
0,7505	-20,8	-220,9
0,751	-19,5	-222,6
0,7515	-19,2	-225,0
0,752	-18,9	-227,3
0,7525	-18,1	-229,0
0,753	-16,2	-229,7
0,7535	-12,8	-229,0
0,754	-8,2	-227,1
0,7545	-3,5	-224,9
0,755	-0,4	-223,3
0,7555	0,5	-222,5
0,756	-1,0	-222,1
0,7565	-5,1	-222,1
0,757	-12,0	-222,9
0,7575	-20,9	-224,8
0,758	-29,4	-227,1
0,7585	-34,6	-228,6
0,759	-35,1	-228,5
0,7595	-31,4	-226,8
0,76	-25,1	-223,8
0,7605	-17,5	-220,1
0,761	-10,1	-216,6
0,7615	-4,1	-214,3
0,762	-0,5	-213,9
0,7625	1,2	-215,1
0,763	2,1	-216,6
0,7635	3,1	-217,5
0,764	4,1	-217,8
0,7645	4,8	-217,4
0,765	6,0	-216,3
0,7655	8,3	-214,3
0,766	11,3	-211,8
0,7665	13,6	-209,8
0,767	13,2	-209,3
0,7675	9,3	-210,3
0,768	2,6	-212,3
0,7685	-5,4	-214,4
0,769	-13,4	-216,1
0,7695	-20,3	-216,9
0,77	-25,0	-216,5
0,7705	-27,1	-215,0
0,771	-26,7	-213,4
0,7715	-24,3	-212,3
0,772	-20,6	-212,0
0,7725	-15,8	-212,1
0,773	-10,9	-212,5
0,7735	-7,4	-213,3
0,774	-6,1	-214,8
0,7745	-6,3	-216,7
0,775	-5,8	-218,4
0,7755	-3,1	-219,2
0,776	2,0	-219,0
0,7765	8,5	-218,1
0,777	15,3	-216,8
0,7775	21,5	-215,2
0,778	26,1	-214,3
0,7785	27,8	-214,7
0,779	26,4	-216,3
0,7795	23,1	-218,2
0,78	19,5	-219,3
0,7805	16,6	-219,5
0,781	14,2	-219,2
0,7815	12,2	-218,5
0,782	11,0	-217,4
0,7825	11,5	-215,9
0,783	13,8	-214,8
0,7835	16,6	-214,9
0,784	18,4	-216,5
0,7845	18,1	-219,1
0,785	15,8	-222,2
0,7855	12,1	-225,3
0,786	8,5	-227,7
0,7865	6,3	-228,8
0,787	6,3	-228,2
0,7875	8,0	-226,7
0,788	10,0	-225,2
0,7885	10,7	-224,4
0,789	9,8	-224,2
0,7895	7,7	-224,3
0,79	4,3	-224,9
0,7905	0,0	-226,2
0,791	-4,5	-227,8
0,7915	-7,7	-228,8
0,792	-8,4	-228,0
0,7925	-7,0	-225,5
0,793	-5,3	-221,5
0,7935	-4,8	-216,6
0,794	-6,5	-211,3
0,7945	-10,0	-206,5
0,795	-15,4	-203,7
0,7955	-21,6	-203,5
0,796	-26,7	-205,4
0,7965	-28,6	-207,7
0,797	-26,7	-209,4
0,7975	-22,1	-210,3
0,798	-16,4	-210,4
0,7985	-10,1	-209,8
0,799	-3,2	-208,6
0,7995	3,4	-207,3
0,8	7,9	-206,7
0,8005	8,8	-207,1
0,801	6,4	-208,4
0,8015	2,2	-210,1
0,802	-2,3	-212,0
0,8025	-6,1	-214,0
0,803	-8,2	-215,6
0,8035	-7,8	-215,9
0,804	-5,3	-215,0
0,8045	-2,3	-213,4
0,805	-0,4	-212,0
0,8055	-0,7	-211,2
0,806	-2,6	-211,0
0,8065	-6,0	-211,5
0,807	-11,0	-212,8
0,8075	-17,9	-214,5
0,808	-25,8	-215,9
0,8085	-32,9	-216,4
0,809	-37,1	-216,0
0,8095	-37,3	-215,3
0,81	-33,4	-214,5
0,8105	-26,4	-213,6
0,811	-18,2	-212,8
0,8115	-11,6	-212,7
0,812	-8,9	-213,9
0,8125	-10,3	-216,0
0,813	-14,1	-217,8
0,8135	-19,0	-218,3
0,814	-24,6	-217,4
0,8145	-30,6	-215,5
0,815	-36,2	-212,8
0,8155	-40,0	-209,8
0,816	-41,7	-207,0
0,8165	-42,1	-205,3
0,817	-42,6	-205,3
0,8175	-43,3	-207,2
0,818	-43,7	-210,0
0,8185	-43,4	-213,1
0,819	-42,8	-215,7
0,8195	-41,5	-217,3
0,82	-38,3	-217,3
0,8205	-32,1	-215,4
0,821	-23,8	-212,4
0,8215	-15,4	-208,7
0,822	-9,4	-205,1
0,8225	-6,3	-201,6
0,823	-6,0	-199,2
0,8235	-8,5	-198,8
0,824	-12,9	-200,5
0,8245	-17,6	-203,4
0,825	-20,0	-205,9
0,8255	-18,3	-207,0
0,826	-12,6	-207,0
0,8265	-4,4	-205,9
0,827	4,8	-204,2
0,8275	13,2	-201,9
0,828	19,5	-199,9
0,8285	22,0	-199,0
0,829	20,6	-199,4
0,8295	16,6	-200,8
0,83	11,9	-202,3
0,8305	8,1	-203,4
0,831	6,1	-204,1
0,8315	6,4	-203,8
0,832	9,0	-202,5
0,8325	13,1	-200,2
0,833	16,9	-198,0
0,8335	18,7	-196,9
0,834	17,6	-197,6
0,8345	13,7	-199,7
0,835	7,2	-202,5
0,8355	-1,9	-205,6
0,836	-13,0	-208,5
0,8365	-24,0	-210,6
0,837	-32,3	-211,4
0,8375	-36,3	-211,0
0,838	-37,0	-209,8
0,8385	-36,1	-208,6
0,839	-34,8	-207,5
0,8395	-33,2	-206,8
0,84	-31,9	-207,0
0,8405	-31,1	-208,0
0,841	-30,4	-209,3
0,8415	-28,8	-210,1
0,842	-25,1	-209,6
0,8425	-19,2	-208,0
0,843	-11,9	-205,9
0,8435	-3,8	-203,6
0,844	4,8	-201,4
0,8445	13,2	-199,8
0,845	19,4	-199,5
0,8455	22,0	-200,7
0,846	21,5	-202,5
0,8465	19,6	-203,7
0,847	17,7	-203,5
0,8475	16,6	-202,1
0,848	16,5	-200,1
0,8485	17,7	-197,5
0,849	19,3	-194,2
0,8495	20,8	-190,7
0,85	21,2	-187,9
0,8505	20,3	-186,7
0,851	18,6	-187,4
0,8515	16,5	-190,0
0,852	13,6	-193,8
0,8525	9,6	-197,9
0,853	5,6	-201,0
0,8535	3,7	-202,2
0,854	4,8	-201,9
0,8545	8,6	-201,1
0,855	13,6	-200,7
0,8555	18,3	-200,9
0,856	21,7	-201,7
0,8565	22,6	-203,1
0,857	20,4	-205,4
0,8575	15,2	-208,2
0,858	8,7	-210,7
0,8585	3,3	-211,5
0,859	1,0	-210,5
0,8595	2,2	-208,0
0,86	5,6	-204,8
0,8605	10,2	-201,5
0,861	14,8	-198,4
0,8615	17,7	-196,2
0,862	17,8	-195,7
0,8625	14,9	-196,7
0,863	9,7	-198,2
0,8635	3,6	-199,0
0,864	-3,2	-198,8
0,8645	-10,6	-198,2
0,865	-17,5	-197,1
0,8655	-22,7	-195,7
0,866	-24,7	-194,1
0,8665	-23,6	-193,1
0,867	-20,9	-193,4
0,8675	-17,9	-195,3
0,868	-15,4	-198,2
0,8685	-14,4	-201,0
0,869	-14,9	-203,1
0,8695	-15,8	-203,9
0,87	-14,9	-203,0
0,8705	-10,9	-201,1
0,871	-4,5	-199,1
0,8715	2,2	-197,9
0,872	7,5	-197,7
0,8725	10,8	-197,9
0,873	11,8	-198,5
0,8735	10,2	-199,6
0,874	6,6	-201,1
0,8745	2,5	-202,5
0,875	-0,1	-202,9
0,8755	-0,2	-202,1
0,876	1,2	-200,4
0,8765	2,6	-198,4
0,877	3,3	-196,4
0,8775	3,5	-194,5
0,878	3,0	-193,5
0,8785	1,1	-194,0
0,879	-2,5	-196,0
0,8795	-6,6	-198,3
0,88	-9,9	-199,9
0,8805	-11,7	-200,6
0,881	-12,2	-200,5
0,8815	-11,1	-199,6
0,882	-8,1	-198,1
0,8825	-2,9	-196,3
0,883	3,2	-195,0
0,8835	8,1	-194,8
0,884	10,2	-195,6
0,8845	9,3	-197,1
0,885	6,3	-198,9
0,8855	2,9	-200,8
0,886	0,1	-202,5
0,8865	-0,9	-203,4
0,887	0,5	-203,3
0,8875	3,6	-202,3
0,888	7,4	-201,0
0,8885	10,4	-200,2
0,889	12,1	-200,3
0,8895	12,4	-201,5
0,89	11,3	-203,8
0,8905	8,3	-207,0
0,891	3,9	-210,3
0,8915	-0,4	-212,8
0,892	-2,4	-213,7
0,8925	-1,0	-212,9
0,893	3,1	-211,1
0,8935	8,5	-209,0
0,894	14,3	-206,9
0,8945	19,3	-205,3
0,895	22,2	-204,6
0,8955	21,8	-205,2
0,896	18,6	-206,4
0,8965	13,6	-207,4
0,897	8,1	-207,7
0,8975	2,7	-207,5
0,898	-2,4	-206,8
0,8985	-6,2	-205,2
0,899	-8,3	-203,0
0,8995	-8,8	-200,8
0,9	-9,1	-199,6
0,9005	-10,6	-199,8
0,901	-13,6	-200,9
0,9015	-17,8	-202,5
0,902	-22,2	-204,2
0,9025	-26,3	-205,8
0,903	-28,7	-206,9
0,9035	-28,2	-206,8
0,904	-24,3	-205,5
0,9045	-18,3	-203,9
0,905	-12,1	-202,7
0,9055	-6,8	-202,2
0,906	-2,9	-202,3
0,9065	-1,3	-203,0
0,907	-2,0	-204,4
0,9075	-4,3	-206,8
0,908	-6,6	-209,4
0,9085	-7,0	-211,3
0,909	-5,1	-211,7
0,9095	-2,1	-210,7
0,91	0,8	-208,6
0,9105	2,2	-206,2
0,911	1,1	-204,2
0,9115	-3,5	-203,3
0,912	-12,3	-204,0
0,9125	-23,9	-205,7
0,913	-35,7	-207,4
0,9135	-45,4	-208,7
0,914	-52,4	-209,5
0,9145	-56,5	-210,0
0,915	-57,2	-209,4
0,9155	-53,7	-207,7
0,916	-46,5	-204,9
0,9165	-37,4	-202,4
0,917	-29,1	-201,1
0,9175	-23,0	-201,6
0,918	-19,2	-203,4
0,9185	-17,4	-206,1
0,919	-16,7	-209,2
0,9195	-16,0	-212,0
0,92	-13,7	-213,6
0,9205	-9,2	-213,5
0,921	-3,8	-211,8
0,9215	0,6	-209,4
0,922	2,4	-207,4
0,9225	1,3	-206,1
0,923	-2,9	-205,9
0,9235	-9,8	-206,8
0,924	-18,7	-208,5
0,9245	-28,1	-210,1
0,925	-35,6	-210,6
0,9255	-39,6	-210,0
0,926	-39,5	-208,9
0,9265	-36,0	-208,3
0,927	-29,7	-208,0
0,9275	-21,5	-208,1
0,928	-13,1	-208,8
0,9285	-6,8	-210,6
0,929	-3,5	-213,3
0,9295	-2,3	-216,1
0,93	-1,6	-218,0
0,9305	-0,6	-218,8
0,931	0,9	-219,0
0,9315	3,7	-218,3
0,932	8,0	-216,5
0,9325	13,8	-213,8
0,933	19,1	-210,8
0,9335	21,5	-208,6
0,934	19,7	-207,3
0,9345	14,5	-206,9
0,935	7,5	-207,0
0,9355	-0,3	-207,4
0,936	-8,0	-208,2
0,9365	-14,3	-209,0
0,937	-17,8	-209,2
0,9375	-18,1	-209,1
0,938	-16,0	-209,0
0,9385	-12,8	-209,4
0,939	-9,3	-210,2
0,9395	-6,0	-211,1
0,94	-3,8	-212,3
0,9405	-3,1	-213,8
0,941	-4,0	-215,5
0,9415	-5,0	-216,9
0,942	-4,3	-217,4
0,9425	-1,5	-217,0
0,943	2,9	-215,9
0,9435	8,1	-214,5
0,944	13,0	-213,1
0,9445	16,0	-212,1
0,945	14,9	-212,0
0,9455	9,2	-212,8
0,946	0,8	-214,2
0,9465	-7,2	-215,6
0,947	-12,8	-216,7
0,9475	-15,8	-217,4
0,948	-16,8	-217,5
0,9485	-16,2	-216,7
0,949	-14,2	-215,0
0,9495	-12,1	-213,1
0,95	-11,8	-212,0
0,9505	-14,8	-212,4
0,951	-21,4	-214,0
0,9515	-30,4	-216,3
0,952	-39,8	-218,9
0,9525	-47,8	-221,6
0,953	-52,7	-223,5
0,9535	-53,0	-223,9
0,954	-49,2	-222,9
0,9545	-42,4	-221,3
0,955	-34,3	-219,6
0,9555	-26,2	-218,0
0,956	-19,3	-216,6
0,9565	-15,0	-215,9
0,957	-14,3	-216,1
0,9575	-16,7	-217,1
0,958	-20,3	-218,1
0,9585	-22,7	-218,2
0,959	-22,6	-217,0
0,9595	-19,9	-214,9
0,96	-15,1	-212,7
0,9605	-8,4	-211,2
0,961	-0,7	-210,7
0,9615	6,3	-211,1
0,962	10,5	-212,1
0,9625	11,9	-212,8
0,963	11,4	-212,5
0,9635	10,9	-211,2
0,964	11,2	-209,4
0,9645	12,8	-207,8
0,965	16,2	-206,3
0,9655	21,6	-205,0
0,966	28,2	-203,6
0,9665	33,8	-202,6
0,967	36,6	-202,6
0,9675	36,2	-203,5
0,968	33,6	-204,9
0,9685	29,8	-206,5
0,969	25,5	-208,2
0,9695	21,5	-209,7
0,97	18,6	-210,3
0,9705	17,5	-209,5
0,971	17,3	-207,9
0,9715	16,6	-206,4
0,972	14,0	-205,7
0,9725	9,3	-205,7
0,973	2,0	-206,3
0,9735	-7,5	-207,4
0,974	-18,3	-208,8
0,9745	-28,9	-210,1
0,975	-37,3	-210,5
0,9755	-41,7	-209,8
0,976	-41,9	-207,9
0,9765	-39,1	-205,3
0,977	-34,6	-202,4
0,9775	-29,4	-200,3
0,978	-25,0	-199,6
0,9785	-22,8	-200,8
0,979	-22,8	-202,9
0,9795	-23,5	-204,8
0,98	-23,9	-205,6
0,9805	-24,3	-205,5
0,981	-25,9	-205,1
0,9815	-27,9	-204,5
0,982	-28,7	-203,6
0,9825	-27,3	-202,4
0,983	-24,5	-201,5
0,9835	-22,6	-201,7
0,984	-22,9	-203,2
0,9845	-25,3	-205,3
0,985	-28,7	-207,1
0,9855	-32,3	-208,4
0,986	-35,3	-208,8
0,9865	-35,7	-207,9
0,987	-32,4	-205,1
0,9875	-26,4	-201,3
0,988	-19,8	-197,4
0,9885	-14,1	-194,6
0,989	-9,7	-193,1
0,9895	-6,9	-192,7
0,99	-6,8	-193,4
0,9905	-9,9	-195,1
0,991	-15,8	-197,2
0,9915	-22,5	-198,3
0,992	-27,8	-197,9
0,9925	-30,8	-196,4
0,993	-32,1	-194,5
0,9935	-32,8	-192,7
0,994	-33,4	-190,8
0,9945	-34,5	-189,5
0,995	-37,5	-189,5
0,9955	-43,4	-190,8
0,996	-52,1	-192,2
0,9965	-61,7	-192,8
0,997	-70,5	-192,2
0,9975	-77,3	-190,9
0,998	-80,9	-189,6
0,9985	-79,8	-188,2
0,999	-73,8	-186,7
0,9995	-64,9	-185,5
1	-56,3	-185,5
1,0005	-50,2	-187,1
1,001	-46,7	-189,6
1,0015	-44,6	-192,3
1,002	-42,9	-194,9
1,0025	-41,3	-197,0
1,003	-39,6	-198,2
1,0035	-36,8	-197,9
1,004	-32,6	-196,5
1,0045	-27,7	-194,8
1,005	-22,9	-193,1
1,0055	-18,6	-191,9
1,006	-14,4	-191,1
1,0065	-10,7	-191,4
1,007	-8,0	-193,0
1,0075	-6,5	-195,5
1,008	-5,1	-198,1
1,0085	-2,8	-199,3
1,009	0,8	-198,6
1,0095	5,4	-196,7
1,01	10,8	-194,4
1,0105	16,9	-192,3
1,011	23,5	-190,7
1,0115	29,3	-190,5
1,012	32,7	-191,8
1,0125	33,1	-194,1
1,013	31,3	-195,9
1,0135	28,5	-196,6
1,014	25,3	-196,4
1,0145	22,5	-195,3
1,015	20,8	-193,2
1,0155	20,5	-190,3
1,016	21,2	-187,1
1,0165	21,1	-184,8
1,017	18,6	-184,0
1,0175	13,3	-184,7
1,018	5,6	-186,3
1,0185	-3,6	-188,3
1,019	-13,0	-190,3
1,0195	-21,2	-191,4
1,02	-26,6	-191,1
1,0205	-29,0	-189,4
1,021	-29,6	-187,3
1,0215	-30,3	-185,6
1,022	-31,6	-184,7
1,0225	-33,4	-184,2
1,023	-35,6	-184,1
1,0235	-38,8	-184,6
1,024	-43,2	-185,4
1,0245	-48,1	-186,2
1,025	-51,8	-186,4
1,0255	-52,6	-185,8
1,026	-50,3	-184,4
1,0265	-46,3	-182,8
1,027	-41,9	-181,1
1,0275	-37,9	-179,7
1,028	-34,5	-178,9
1,0285	-32,6	-179,5
1,029	-32,3	-181,2
1,0295	-32,9	-183,2
1,03	-33,3	-184,7
1,0305	-32,8	-185,4
1,031	-31,6	-185,3
1,0315	-28,8	-184,3
1,032	-23,8	-182,5
1,0325	-16,8	-179,9
1,033	-9,3	-177,2
1,0335	-3,2	-175,6
1,034	0,5	-175,6
1,0345	1,5	-177,1
1,035	0,5	-179,5
1,0355	-1,8	-182,3
1,036	-4,1	-184,8
1,0365	-5,1	-185,9
1,037	-4,0	-185,4
1,0375	-1,8	-183,8
1,038	-0,2	-182,1
1,0385	-0,5	-181,0
1,039	-2,8	-180,5
1,0395	-6,7	-180,9
1,04	-12,0	-182,5
1,0405	-18,2	-185,2
1,041	-23,8	-188,2
1,0415	-27,0	-190,5
1,042	-26,3	-191,1
1,0425	-22,1	-190,1
1,043	-16,2	-188,3
1,0435	-10,3	-186,1
1,044	-5,7	-184,0
1,0445	-2,9	-182,4
1,045	-2,8	-181,8
1,0455	-5,3	-182,6
1,046	-9,4	-184,0
1,0465	-12,9	-185,1
1,047	-14,9	-185,3
1,0475	-15,9	-184,5
1,048	-16,4	-182,5
1,0485	-16,1	-179,6
1,049	-14,1	-176,1
1,0495	-10,8	-172,9
1,05	-7,5	-171,2
1,0505	-5,7	-171,4
1,051	-6,3	-173,2
1,0515	-9,3	-176,1
1,052	-13,9	-179,4
1,0525	-18,8	-182,6
1,053	-22,5	-184,8
1,0535	-24,0	-185,2
1,054	-23,8	-184,3
1,0545	-23,2	-183,1
1,055	-23,0	-182,3
1,0555	-23,4	-182,2
1,056	-24,0	-182,6
1,0565	-25,3	-183,7
1,057	-27,9	-185,7
1,0575	-31,7	-188,3
1,058	-35,3	-190,3
1,0585	-37,1	-190,7
1,059	-36,3	-189,2
1,0595	-33,5	-186,6
1,06	-29,5	-183,8
1,0605	-25,4	-181,3
1,061	-22,8	-179,8
1,0615	-23,2	-179,7
1,062	-27,0	-181,2
1,0625	-32,3	-183,7
1,063	-36,2	-186,2
1,0635	-37,8	-188,0
1,064	-37,8	-189,2
1,0645	-37,3	-189,9
1,065	-36,5	-189,8
1,0655	-35,3	-188,4
1,066	-33,9	-186,2
1,0665	-33,4	-184,0
1,067	-34,9	-182,7
1,0675	-38,2	-182,4
1,068	-42,6	-182,7
1,0685	-47,6	-183,5
1,069	-52,6	-184,6
1,0695	-56,3	-185,6
1,07	-56,8	-185,7
1,0705	-53,3	-184,7
1,071	-46,7	-183,0
1,0715	-39,6	-181,6
1,072	-34,4	-180,9
1,0725	-32,0	-180,8
1,073	-32,7	-181,0
1,0735	-36,8	-181,5
1,074	-43,8	-182,3
1,0745	-51,7	-182,8
1,075	-56,5	-182,3
1,0755	-55,1	-181,0
1,076	-46,3	-179,0
1,0765	-31,1	-176,7
1,077	-12,2	-174,3
1,0775	7,0	-172,4
1,078	22,5	-171,6
1,0785	31,6	-172,5
1,079	34,2	-174,9
1,0795	32,7	-177,6
1,08	30,0	-179,7
1,0805	27,4	-180,3
1,081	25,2	-179,6
1,0815	23,8	-177,6
1,082	23,9	-174,4
1,0825	25,9	-170,7
1,083	29,1	-167,4
1,0835	32,1	-165,4
1,084	33,8	-165,2
1,0845	33,5	-166,3
1,085	31,0	-167,8
1,0855	26,1	-169,3
1,086	19,9	-170,3
1,0865	14,3	-170,6
1,087	11,1	-169,9
1,0875	10,7	-168,3
1,088	11,6	-166,6
1,0885	12,3	-165,6
1,089	11,9	-165,5
1,0895	10,2	-166,5
1,09	6,5	-168,6
1,0905	0,9	-171,3
1,091	-5,3	-174,4
1,0915	-10,2	-176,7
1,092	-12,5	-177,4
1,0925	-12,9	-176,6
1,093	-12,6	-174,7
1,0935	-12,3	-172,5
1,094	-11,8	-170,3
1,0945	-11,8	-168,9
1,095	-13,3	-169,0
1,0955	-16,2	-170,8
1,096	-19,4	-173,7
1,0965	-21,4	-176,3
1,097	-21,7	-177,8
1,0975	-20,8	-178,2
1,098	-18,9	-177,5
1,0985	-16,3	-176,1
1,099	-13,0	-174,1
1,0995	-9,7	-171,9
1,1	-7,6	-170,3
1,1005	-7,7	-169,8
1,101	-9,9	-170,3
1,1015	-13,4	-171,4
1,102	-17,1	-172,9
1,1025	-20,1	-174,5
1,103	-21,3	-175,2
1,1035	-19,9	-174,3
1,104	-17,0	-172,0
1,1045	-14,4	-169,2
1,105	-13,8	-166,8
1,1055	-15,4	-165,0
1,106	-18,1	-163,8
1,1065	-20,8	-163,4
1,107	-23,3	-163,9
1,1075	-25,1	-164,9
1,108	-25,4	-165,7
1,1085	-23,5	-165,7
1,109	-19,0	-164,8
1,1095	-12,5	-163,3
1,11	-4,6	-161,5
1,1105	3,6	-159,8
1,111	10,7	-158,3
1,1115	14,8	-157,5
1,112	14,8	-157,9
1,1125	11,8	-159,3
1,113	7,6	-161,0
1,1135	3,7	-162,0
1,114	-0,0	-162,2
1,1145	-3,2	-161,6
1,115	-4,7	-160,3
1,1155	-3,6	-158,6
1,116	0,2	-157,1
1,1165	4,7	-156,4
1,117	7,8	-156,9
1,1175	8,6	-158,3
1,118	7,2	-159,8
1,1185	3,9	-161,3
1,119	-1,2	-162,4
1,1195	-7,7	-162,9
1,12	-13,9	-162,2
1,1205	-18,2	-160,5
1,121	-20,1	-158,7
1,1215	-20,3	-157,6
1,122	-20,0	-157,4
1,1225	-19,7	-157,7
1,123	-20,9	-158,3
1,1235	-24,3	-159,6
1,124	-29,3	-161,8
1,1245	-34,0	-164,2
1,125	-36,1	-166,0
1,1255	-34,8	-166,6
1,126	-30,8	-166,3
1,1265	-25,1	-165,1
1,127	-18,8	-163,4
1,1275	-12,6	-161,5
1,128	-7,9	-160,0
1,1285	-5,9	-159,6
1,129	-6,5	-160,1
1,1295	-8,4	-160,8
1,13	-9,8	-161,0
1,1305	-10,1	-160,9
1,131	-9,3	-160,5
1,1315	-7,1	-159,8
1,132	-3,6	-158,4
1,1325	0,6	-156,3
1,133	4,3	-154,4
1,1335	6,0	-153,5
1,134	5,0	-153,9
1,1345	1,5	-155,1
1,135	-4,3	-156,8
1,1355	-11,4	-158,6
1,136	-18,4	-159,8
1,1365	-23,2	-159,6
1,137	-24,2	-157,8
1,1375	-22,2	-155,1
1,138	-19,2	-152,7
1,1385	-16,7	-151,3
1,139	-15,0	-151,0
1,1395	-14,2	-151,5
1,14	-15,3	-152,8
1,1405	-18,3	-155,0
1,141	-22,3	-157,4
1,1415	-25,2	-159,2
1,142	-24,7	-159,6
1,1425	-20,3	-158,4
1,143	-12,8	-156,3
1,1435	-3,2	-153,9
1,144	7,0	-151,9
1,1445	15,5	-151,2
1,145	20,0	-151,8
1,1455	19,3	-153,6
1,146	14,7	-155,3
1,1465	8,7	-156,5
1,147	3,8	-156,9
1,1475	1,1	-157,1
1,148	1,4	-156,9
1,1485	4,8	-156,2
1,149	11,0	-154,7
1,1495	18,4	-153,0
1,15	24,1	-152,0
1,1505	25,9	-152,4
1,151	23,5	-154,1
1,1515	18,0	-156,5
1,152	10,9	-159,3
1,1525	3,4	-161,7
1,153	-3,5	-162,8
1,1535	-9,1	-162,4
1,154	-13,0	-160,8
1,1545	-15,8	-159,2
1,155	-18,2	-158,1
1,1555	-20,8	-157,8
1,156	-23,9	-158,3
1,1565	-27,7	-159,9
1,157	-32,0	-162,6
1,1575	-35,9	-165,5
1,158	-38,3	-167,8
1,1585	-37,3	-168,6
1,159	-32,7	-167,8
1,1595	-25,4	-166,2
1,16	-17,4	-164,1
1,1605	-10,2	-161,8
1,161	-4,7	-159,7
1,1615	-1,8	-158,2
1,162	-1,6	-157,4
1,1625	-3,5	-157,1
1,163	-5,8	-156,9
1,1635	-7,3	-156,9
1,164	-7,9	-156,9
1,1645	-7,3	-156,6
1,165	-4,7	-155,5
1,1655	0,7	-153,5
1,166	7,9	-151,0
1,1665	14,5	-149,0
1,167	18,3	-148,3
1,1675	18,9	-148,9
1,168	17,4	-150,5
1,1685	14,7	-152,8
1,169	10,8	-155,3
1,1695	6,3	-157,3
1,17	2,5	-158,0
1,1705	1,3	-157,3
1,171	3,0	-155,9
1,1715	6,8	-154,5
1,172	11,0	-153,8
1,1725	13,7	-154,0
1,173	12,9	-155,0
1,1735	7,7	-156,9
1,174	-1,6	-159,2
1,1745	-13,0	-161,3
1,175	-23,5	-162,3
1,1755	-30,8	-161,6
1,176	-34,0	-159,7
1,1765	-33,6	-157,2
1,177	-30,6	-154,7
1,1775	-26,1	-152,7
1,178	-22,3	-151,5
1,1785	-21,0	-151,6
1,179	-22,0	-152,8
1,1795	-23,8	-154,3
1,18	-24,4	-155,3
1,1805	-23,0	-155,7
1,181	-19,3	-155,9
1,1815	-13,0	-155,8
1,182	-4,2	-155,3
1,1825	6,6	-154,3
1,183	17,1	-153,2
1,1835	25,2	-152,8
1,184	29,4	-153,3
1,1845	29,6	-154,6
1,185	26,1	-156,4
1,1855	19,4	-158,6
1,186	11,4	-160,9
1,1865	4,5	-162,2
1,187	0,6	-161,8
1,1875	-1,4	-160,0
1,188	-4,0	-157,9
1,1885	-8,9	-156,5
1,189	-15,8	-156,2
1,1895	-23,7	-157,1
1,19	-31,5	-159,2
1,1905	-38,8	-162,3
1,191	-44,5	-165,5
1,1915	-47,0	-167,7
1,192	-45,2	-167,8
1,1925	-38,9	-165,9
1,193	-29,3	-162,8
1,1935	-17,7	-159,6
1,194	-5,6	-156,8
1,1945	5,2	-154,9
1,195	12,7	-154,1
1,1955	16,2	-154,2
1,196	16,6	-154,3
1,1965	15,4	-153,6
1,197	14,1	-152,0
1,1975	12,7	-149,9
1,198	11,5	-147,5
1,1985	11,0	-144,7
1,199	11,7	-141,3
1,1995	13,7	-138,0
1,2	15,6	-135,9
1,2005	16,5	-135,5
1,201	16,5	-136,5
1,2015	16,4	-138,2
1,202	16,7	-139,9
1,2025	17,8	-141,3
1,203	20,4	-142,0
1,2035	25,0	-141,9
1,204	31,3	-141,4
1,2045	37,9	-141,1
1,205	42,8	-141,5
1,2055	44,9	-142,5
1,206	44,2	-143,8
1,2065	40,8	-145,7
1,207	35,1	-148,2
1,2075	27,5	-151,1
1,208	19,8	-153,5
1,2085	14,1	-154,5
1,209	11,5	-153,8
1,2095	12,0	-152,1
1,21	14,8	-149,9
1,2105	19,1	-147,6
1,211	23,6	-145,7
1,2115	26,8	-144,8
1,212	27,7	-145,4
1,2125	26,8	-146,9
1,213	25,5	-148,3
1,2135	24,6	-149,1
1,214	24,2	-149,4
1,2145	24,6	-149,4
1,215	26,7	-148,7
1,2155	31,0	-147,1
1,216	36,8	-144,8
1,2165	41,7	-142,9
1,217	43,7	-142,5
1,2175	42,1	-143,7
1,218	37,4	-145,8
1,2185	30,7	-148,2
1,219	23,5	-149,9
1,2195	17,8	-150,5
1,22	14,8	-149,5
1,2205	14,3	-147,1
1,221	14,4	-144,6
1,2215	13,5	-142,9
1,222	11,2	-142,7
1,2225	7,9	-143,6
1,223	4,2	-145,4
1,2235	-0,2	-147,8
1,224	-5,0	-150,1
1,2245	-9,2	-151,6
1,225	-11,1	-151,5
1,2255	-10,1	-149,5
1,226	-6,8	-146,6
1,2265	-2,6	-143,4
1,227	1,0	-140,4
1,2275	2,6	-137,7
1,228	0,4	-135,7
1,2285	-6,7	-135,3
1,229	-17,4	-136,5
1,2295	-29,2	-138,6
1,23	-38,9	-140,4
1,2305	-44,8	-141,5
1,231	-46,7	-141,5
1,2315	-44,8	-140,5
1,232	-40,2	-138,5
1,2325	-34,2	-135,8
1,233	-28,4	-133,4
1,2335	-24,2	-132,2
1,234	-20,9	-132,2
1,2345	-17,6	-133,1
1,235	-13,6	-134,6
1,2355	-9,3	-136,5
1,236	-5,2	-138,1
1,2365	-0,2	-138,7
1,237	6,7	-138,0
1,2375	15,3	-136,7
1,238	23,7	-135,3
1,2385	29,8	-134,4
1,239	32,9	-133,8
1,2395	32,7	-133,3
1,24	29,8	-133,4
1,2405	25,6	-134,2
1,241	22,0	-135,3
1,2415	21,3	-135,6
1,242	24,2	-134,4
1,2425	29,7	-132,0
1,243	36,2	-128,9
1,2435	42,5	-125,8
1,244	48,0	-123,3
1,2445	51,7	-121,6
1,245	52,1	-121,5
1,2455	48,7	-122,4
1,246	42,5	-123,8
1,2465	35,6	-124,8
1,247	29,9	-125,4
1,2475	26,5	-125,8
1,248	25,8	-125,7
1,2485	27,3	-124,6
1,249	29,9	-122,6
1,2495	31,8	-120,3
1,25	31,2	-119,1
1,2505	27,2	-119,4
1,251	21,0	-120,9
1,2515	14,5	-122,7
1,252	9,6	-124,4
1,2525	7,4	-125,7
1,253	8,8	-126,3
1,2535	13,3	-125,4
1,254	19,3	-123,3
1,2545	24,5	-120,7
1,255	27,6	-118,8
1,2555	28,4	-118,1
1,256	27,6	-118,7
1,2565	25,0	-120,5
1,257	20,1	-123,0
1,2575	13,6	-125,4
1,258	7,5	-127,0
1,2585	4,1	-126,9
1,259	4,2	-125,3
1,2595	7,4	-122,5
1,26	12,9	-119,2
1,2605	19,9	-116,1
1,261	26,9	-113,6
1,2615	31,9	-112,6
1,262	33,6	-113,2
1,2625	32,5	-114,7
1,263	29,5	-116,3
1,2635	25,4	-117,1
1,264	20,4	-117,3
1,2645	15,8	-116,8
1,265	13,4	-115,8
1,2655	14,3	-114,1
1,266	17,9	-112,1
1,2665	22,0	-110,6
1,267	24,1	-110,3
1,2675	23,3	-111,4
1,268	19,9	-113,4
1,2685	14,9	-115,8
1,269	9,3	-118,2
1,2695	4,8	-119,7
1,27	3,5	-119,9
1,2705	6,3	-119,3
1,271	11,4	-118,5
1,2715	16,4	-118,1
1,272	19,7	-118,3
1,2725	21,1	-118,8
1,273	21,0	-119,7
1,2735	19,3	-121,0
1,274	15,7	-122,9
1,2745	11,4	-124,7
1,275	8,6	-125,7
1,2755	8,5	-125,4
1,276	10,7	-123,9
1,2765	13,9	-121,6
1,277	16,9	-119,0
1,2775	18,9	-116,6
1,278	19,4	-115,1
1,2785	18,3	-114,8
1,279	16,3	-115,5
1,2795	14,8	-116,7
1,28	14,2	-117,8
1,2805	14,5	-118,9
1,281	15,6	-120,0
1,2815	18,0	-120,6
1,282	22,3	-120,3
1,2825	28,4	-119,3
1,283	34,9	-118,6
1,2835	40,3	-118,7
1,284	43,8	-119,6
1,2845	45,6	-120,8
1,285	45,5	-121,7
1,2855	43,5	-122,2
1,286	40,3	-121,9
1,2865	37,8	-120,7
1,287	36,7	-118,7
1,2875	36,1	-116,4
1,288	34,3	-114,8
1,2885	30,1	-114,2
1,289	23,8	-114,1
1,2895	15,9	-114,3
1,29	6,6	-115,3
1,2905	-3,4	-117,0
1,291	-12,6	-119,3
1,2915	-18,4	-121,1
1,292	-18,8	-121,7
1,2925	-13,9	-120,8
1,293	-5,3	-119,3
1,2935	4,0	-117,4
1,294	11,7	-115,8
1,2945	16,2	-115,0
1,295	16,3	-115,8
1,2955	12,3	-117,8
1,296	6,3	-120,3
1,2965	0,8	-122,3
1,297	-3,3	-123,4
1,2975	-6,0	-123,7
1,298	-7,2	-123,1
1,2985	-5,9	-121,4
1,299	-1,6	-118,9
1,2995	4,5	-116,0
1,3	10,1	-113,6
1,3005	13,6	-112,3
1,301	15,3	-112,1
1,3015	16,0	-112,8
1,302	16,0	-113,8
1,3025	15,8	-114,6
1,303	16,6	-114,2
1,3035	19,2	-112,2
1,304	22,8	-109,4
1,3045	25,8	-106,9
1,305	26,6	-105,6
1,3055	24,9	-105,5
1,306	21,2	-106,3
1,3065	15,5	-108,0
1,307	8,7	-110,3
1,3075	1,9	-112,6
1,308	-3,0	-114,0
1,3085	-4,2	-113,7
1,309	-1,3	-112,1
1,3095	4,6	-109,6
1,31	11,9	-106,9
1,3105	19,5	-104,2
1,311	25,8	-102,2
1,3115	28,8	-101,6
1,312	27,3	-102,7
1,3125	22,6	-104,6
1,313	16,9	-106,2
1,3135	12,2	-106,9
1,314	9,2	-106,8
1,3145	8,2	-105,8
1,315	9,7	-103,7
1,3155	13,7	-100,8
1,316	19,2	-97,5
1,3165	23,9	-95,3
1,317	26,2	-94,6
1,3175	25,5	-95,3
1,318	22,3	-96,9
1,3185	17,5	-98,8
1,319	12,4	-100,8
1,3195	8,9	-102,0
1,32	8,7	-102,0
1,3205	11,8	-101,1
1,321	16,8	-100,2
1,3215	21,8	-99,8
1,322	25,4	-100,1
1,3225	26,5	-101,0
1,323	23,3	-102,6
1,3235	15,2	-104,9
1,324	3,1	-107,7
1,3245	-10,2	-110,3
1,325	-21,1	-111,8
1,3255	-27,5	-111,8
1,326	-28,8	-110,3
1,3265	-25,6	-107,8
1,327	-19,2	-105,1
1,3275	-11,4	-102,7
1,328	-5,3	-101,3
1,3285	-3,1	-101,3
1,329	-4,6	-102,3
1,3295	-7,3	-103,3
1,33	-9,0	-103,9
1,3305	-9,0	-104,0
1,331	-7,4	-103,6
1,3315	-4,3	-102,8
1,332	0,2	-101,6
1,3325	5,6	-100,1
1,333	10,4	-98,9
1,3335	12,9	-98,8
1,334	12,8	-99,8
1,3345	11,0	-101,8
1,335	8,0	-104,1
1,3355	4,1	-106,2
1,336	-0,2	-107,5
1,3365	-3,0	-107,3
1,337	-3,0	-105,3
1,3375	-0,5	-102,6
1,338	3,3	-100,2
1,3385	6,7	-98,9
1,339	8,8	-98,7
1,3395	8,7	-99,4
1,34	5,9	-101,3
1,3405	1,1	-103,8
1,341	-4,3	-106,1
1,3415	-8,0	-107,0
1,342	-8,9	-105,9
1,3425	-6,7	-103,3
1,343	-2,0	-100,0
1,3435	4,4	-97,3
1,344	11,4	-95,6
1,3445	17,4	-95,6
1,345	20,3	-97,2
1,3455	20,0	-99,9
1,346	17,8	-102,3
1,3465	15,5	-103,3
1,347	14,2	-102,5
1,3475	13,9	-100,7
1,348	15,1	-98,6
1,3485	18,1	-96,9
1,349	22,7	-95,6
1,3495	27,3	-94,9
1,35	29,8	-95,2
1,3505	29,7	-96,3
1,351	27,4	-98,0
1,3515	23,6	-100,1
1,352	19,2	-102,0
1,3525	15,1	-103,6
1,353	12,8	-103,9
1,3535	13,4	-102,8
1,354	16,4	-100,8
1,3545	20,4	-99,1
1,355	24,5	-98,3
1,3555	28,2	-98,3
1,356	31,0	-99,1
1,3565	31,6	-100,5
1,357	29,5	-102,5
1,3575	24,8	-105,0
1,358	19,3	-107,0
1,3585	15,5	-107,8
1,359	14,4	-107,3
1,3595	15,6	-105,6
1,36	17,4	-103,3
1,3605	18,7	-100,5
1,361	19,0	-98,2
1,3615	17,4	-97,2
1,362	13,5	-97,9
1,3625	7,8	-99,7
1,363	1,5	-101,7
1,3635	-4,7	-102,9
1,364	-10,3	-103,2
1,3645	-14,6	-102,4
1,365	-16,7	-100,7
1,3655	-16,4	-98,4
1,366	-14,5	-96,2
1,3665	-12,8	-95,0
1,367	-12,8	-94,8
1,3675	-15,0	-95,1
1,368	-19,2	-95,4
1,3685	-24,7	-95,9
1,369	-30,6	-96,9
1,3695	-35,0	-97,9
1,37	-35,8	-98,3
1,3705	-32,4	-97,8
1,371	-26,3	-96,9
1,3715	-19,6	-96,6
1,372	-13,7	-97,0
1,3725	-8,8	-97,9
1,373	-4,9	-99,1
1,3735	-2,8	-100,5
1,374	-2,6	-102,2
1,3745	-3,4	-103,8
1,375	-3,8	-104,4
1,3755	-2,9	-103,9
1,376	-0,8	-102,8
1,3765	2,2	-101,7
1,377	5,7	-100,7
1,3775	9,3	-100,0
1,378	11,4	-100,0
1,3785	10,9	-101,1
1,379	8,2	-102,6
1,3795	5,1	-103,8
1,38	3,2	-104,2
1,3805	2,4	-104,1
1,381	2,2	-103,8
1,3815	2,8	-103,0
1,382	4,9	-101,5
1,3825	8,6	-99,6
1,383	12,7	-98,4
1,3835	15,6	-98,7
1,384	17,0	-100,5
1,3845	16,9	-103,1
1,385	15,3	-106,0
1,3855	11,7	-108,9
1,386	5,8	-111,4
1,3865	-0,8	-112,6
1,387	-7,0	-112,5
1,3875	-12,3	-111,5
1,388	-16,9	-110,4
1,3885	-21,1	-109,6
1,389	-24,6	-109,0
1,3895	-27,4	-108,8
1,39	-30,1	-109,3
1,3905	-32,6	-110,8
1,391	-34,5	-113,0
1,3915	-34,6	-114,6
1,392	-33,0	-114,7
1,3925	-30,2	-113,2
1,393	-26,9	-110,5
1,3935	-23,8	-107,1
1,394	-21,3	-103,5
1,3945	-20,5	-100,4
1,395	-21,6	-98,7
1,3955	-23,7	-99,0
1,396	-24,5	-100,8
1,3965	-22,7	-102,9
1,397	-17,9	-104,4
1,3975	-11,4	-105,2
1,398	-3,9	-105,3
1,3985	4,3	-104,5
1,399	12,5	-103,1
1,3995	19,4	-101,9
1,4	23,7	-101,8
1,4005	24,8	-102,7
1,401	22,9	-103,9
1,4015	18,6	-104,7
1,402	12,6	-104,8
1,4025	6,0	-104,3
1,403	0,5	-102,9
1,4035	-2,5	-100,5
1,404	-3,1	-97,5
1,4045	-2,5	-94,8
1,405	-2,1	-93,3
1,4055	-2,6	-93,1
1,406	-4,4	-94,2
1,4065	-8,3	-96,5
1,407	-14,4	-99,8
1,4075	-21,4	-103,4
1,408	-27,1	-106,0
1,4085	-29,6	-106,8
1,409	-28,5	-105,7
1,4095	-25,1	-103,5
1,41	-21,0	-100,8
1,4105	-18,2	-98,2
1,411	-19,2	-96,3
1,4115	-26,5	-96,0
1,412	-40,1	-97,5
1,4125	-56,9	-100,0
1,413	-72,3	-102,4
1,4135	-82,8	-104,0
1,414	-87,3	-104,8
1,4145	-86,0	-105,0
1,415	-79,5	-104,4
1,4155	-69,0	-103,1
1,416	-56,5	-101,7
1,4165	-44,5	-101,2
1,417	-34,9	-102,0
1,4175	-27,8	-103,9
1,418	-22,7	-106,4
1,4185	-19,3	-109,3
1,419	-17,2	-111,9
1,4195	-15,4	-113,4
1,42	-12,6	-112,8
1,4205	-8,6	-110,2
1,421	-3,7	-106,3
1,4215	1,5	-102,4
1,422	6,8	-99,5
1,4225	11,3	-97,7
1,423	13,4	-96,8
1,4235	12,0	-96,9
1,424	7,2	-97,6
1,4245	1,0	-98,2
1,425	-3,7	-97,9
1,4255	-4,8	-96,3
1,426	-1,9	-93,6
1,4265	4,5	-90,5
1,427	13,4	-87,7
1,4275	23,4	-85,5
1,428	32,4	-84,7
1,4285	37,9	-85,5
1,429	39,5	-87,2
1,4295	37,9	-88,9
1,43	34,6	-89,8
1,4305	30,6	-90,1
1,431	26,6	-89,8
1,4315	23,7	-88,9
1,432	22,3	-87,1
1,4325	21,8	-85,0
1,433	20,4	-83,4
1,4335	16,2	-83,3
1,434	8,9	-84,4
1,4345	-0,5	-86,0
1,435	-10,0	-87,6
1,4355	-17,9	-88,9
1,436	-23,5	-89,7
1,4365	-26,0	-89,4
1,437	-25,4	-88,3
1,4375	-22,8	-87,2
1,438	-19,5	-86,9
1,4385	-17,0	-87,5
1,439	-15,7	-88,5
1,4395	-15,9	-89,7
1,44	-18,0	-91,2
1,4405	-21,8	-93,2
1,441	-25,7	-95,1
1,4415	-27,6	-96,2
1,442	-26,4	-95,9
1,4425	-22,2	-94,5
1,443	-15,9	-92,8
1,4435	-9,0	-90,9
1,444	-2,7	-88,7
1,4445	1,6	-86,7
1,445	2,1	-85,5
1,4455	-0,9	-85,5
1,446	-5,0	-86,3
1,4465	-7,5	-87,1
1,447	-7,3	-87,8
1,4475	-4,5	-88,3
1,448	1,0	-88,3
1,4485	9,2	-87,3
1,449	18,9	-85,1
1,4495	27,7	-82,8
1,45	32,8	-81,9
1,4505	33,2	-83,3
1,451	29,5	-86,3
1,4515	23,4	-89,8
1,452	16,2	-93,0
1,4525	8,8	-95,4
1,453	2,9	-96,4
1,4535	0,0	-96,1
1,454	0,9	-95,2
1,4545	4,6	-94,7
1,455	9,5	-95,1
1,4555	13,9	-95,8
1,456	16,7	-96,7
1,4565	16,3	-97,7
1,457	12,0	-98,8
1,4575	4,6	-100,2
1,458	-3,6	-101,1
1,4585	-10,2	-101,2
1,459	-14,0	-100,6
1,4595	-14,8	-99,4
1,46	-12,5	-97,7
1,4605	-7,8	-95,7
1,461	-1,9	-93,7
1,4615	2,5	-92,3
1,462	3,8	-91,4
1,4625	2,3	-90,6
1,463	-1,0	-89,2
1,4635	-5,0	-87,0
1,464	-9,2	-84,8
1,4645	-12,8	-82,9
1,465	-14,7	-81,1
1,4655	-14,8	-78,9
1,466	-14,4	-76,7
1,4665	-15,1	-75,2
1,467	-17,7	-74,9
1,4675	-21,4	-75,8
1,468	-25,0	-77,3
1,4685	-27,9	-79,2
1,469	-29,9	-81,5
1,4695	-30,1	-83,5
1,47	-27,5	-84,1
1,4705	-22,7	-83,3
1,471	-17,6	-81,8
1,4715	-14,0	-80,5
1,472	-12,8	-80,0
1,4725	-13,5	-80,5
1,473	-16,3	-82,1
1,4735	-20,8	-84,6
1,474	-26,1	-87,7
1,4745	-30,3	-90,5
1,475	-31,8	-91,7
1,4755	-29,6	-91,0
1,476	-23,6	-89,0
1,4765	-14,6	-86,6
1,477	-3,3	-84,3
1,4775	8,8	-82,5
1,478	19,6	-82,0
1,4785	27,4	-83,0
1,479	31,7	-85,1
1,4795	33,4	-87,3
1,48	33,7	-89,0
1,4805	32,8	-89,8
1,481	30,8	-89,8
1,4815	28,3	-88,8
1,482	26,1	-86,9
1,4825	24,7	-84,9
1,483	23,1	-83,8
1,4835	20,6	-84,1
1,484	17,0	-85,6
1,4845	12,6	-87,6
1,485	7,6	-89,3
1,4855	2,0	-90,3
1,486	-3,3	-90,8
1,4865	-6,8	-90,3
1,487	-7,4	-88,9
1,4875	-5,9	-87,3
1,488	-4,2	-85,9
1,4885	-3,8	-84,8
1,489	-5,5	-83,9
1,4895	-9,8	-83,1
1,49	-16,8	-82,8
1,4905	-25,4	-83,4
1,491	-33,8	-84,5
1,4915	-39,6	-85,3
1,492	-41,5	-85,5
1,4925	-39,8	-84,8
1,493	-36,2	-83,9
1,4935	-31,7	-82,8
1,494	-27,0	-81,9
1,4945	-22,8	-81,5
1,495	-20,5	-82,3
1,4955	-20,9	-84,0
1,496	-23,7	-85,9
1,4965	-27,6	-87,0
1,497	-31,3	-87,3
1,4975	-34,8	-87,0
1,498	-37,9	-86,2
1,4985	-40,1	-84,7
1,499	-40,5	-82,8
1,4995	-39,3	-81,3
1,5	-37,6	-81,3
1,5005	-36,2	-82,9
1,501	-35,0	-85,6
1,5015	-34,1	-88,4
1,502	-33,6	-90,9
1,5025	-33,4	-92,7
1,503	-32,3	-93,3
1,5035	-28,9	-92,2
1,504	-23,9	-89,9
1,5045	-18,4	-87,4
1,505	-14,1	-85,5
1,5055	-11,5	-84,7
1,506	-10,8	-85,1
1,5065	-12,3	-86,5
1,507	-16,2	-88,8
1,5075	-21,8	-91,7
1,508	-27,1	-94,3
1,5085	-30,5	-95,4
1,509	-31,3	-94,7
1,5095	-30,1	-92,3
1,51	-27,3	-88,7
1,5105	-23,1	-84,5
1,511	-18,1	-80,4
1,5115	-14,0	-77,7
1,512	-12,1	-77,1
1,5125	-12,1	-78,2
1,513	-12,2	-79,8
1,5135	-11,1	-81,1
1,514	-9,0	-81,9
1,5145	-5,8	-81,8
1,515	-1,2	-80,8
1,5155	4,7	-79,0
1,516	11,1	-77,5
1,5165	16,3	-77,6
1,517	19,0	-79,6
1,5175	18,8	-82,9
1,518	15,6	-86,4
1,5185	10,0	-89,6
1,519	2,8	-92,3
1,5195	-4,0	-94,0
1,52	-8,1	-94,1
1,5205	-8,6	-92,4
1,521	-5,8	-89,3
1,5215	-1,4	-85,9
1,522	3,0	-82,8
1,5225	6,0	-80,7
1,523	6,2	-80,1
1,5235	2,8	-81,3
1,524	-3,7	-83,8
1,5245	-11,6	-86,3
1,525	-18,5	-87,1
1,5255	-23,2	-85,3
1,526	-25,3	-81,6
1,5265	-25,1	-77,5
1,527	-22,6	-74,2
1,5275	-18,4	-72,4
1,528	-14,3	-72,4
1,5285	-12,2	-74,0
1,529	-12,3	-76,5
1,5295	-13,3	-78,7
1,53	-12,6	-79,9
1,5305	-8,7	-80,1
1,531	-1,4	-79,6
1,5315	8,9	-78,3
1,532	21,1	-76,2
1,5325	33,0	-73,8
1,533	42,4	-72,1
1,5335	47,4	-72,0
1,534	47,6	-73,8
1,5345	43,5	-76,8
1,535	35,5	-80,4
1,5355	24,3	-84,0
1,536	11,8	-86,8
1,5365	0,3	-88,0
1,537	-9,7	-87,8
1,5375	-19,0	-86,7
1,538	-29,0	-85,4
1,5385	-39,9	-84,6
1,539	-50,5	-84,4
1,5395	-59,9	-85,2
1,54	-67,8	-87,2
1,5405	-74,5	-90,1
1,541	-79,4	-93,1
1,5415	-81,2	-94,9
1,542	-78,9	-94,6
1,5425	-73,1	-92,4
1,543	-64,8	-89,2
1,5435	-55,2	-85,7
1,544	-45,2	-82,7
1,5445	-36,4	-80,8
1,545	-30,1	-80,4
1,5455	-26,3	-81,0
1,546	-23,4	-81,7
1,5465	-20,1	-82,0
1,547	-15,8	-82,1
1,5475	-10,9	-82,3
1,548	-5,3	-81,7
1,5485	1,3	-79,5
1,549	8,3	-75,8
1,5495	14,7	-71,9
1,55	18,3	-69,3
1,5505	18,2	-68,8
1,551	14,7	-69,7
1,5515	9,6	-71,3
1,552	4,8	-72,8
1,5525	1,9	-73,8
1,553	2,0	-74,0
1,5535	5,3	-72,9
1,554	10,2	-71,4
1,5545	14,2	-70,3
1,555	14,8	-70,1
1,5555	11,2	-70,8
1,556	3,7	-72,5
1,5565	-6,7	-75,2
1,557	-18,8	-78,5
1,5575	-31,2	-81,9
1,558	-41,2	-84,4
1,5585	-46,7	-85,3
1,559	-47,1	-84,6
1,5595	-43,3	-82,9
1,56	-36,8	-80,7
1,5605	-29,4	-78,3
1,561	-22,8	-76,0
1,5615	-18,7	-74,5
1,562	-17,5	-74,5
1,5625	-18,1	-75,8
1,563	-18,7	-77,6
1,5635	-18,2	-78,8
1,564	-16,4	-79,3
1,5645	-12,8	-78,9
1,565	-7,1	-77,8
1,5655	0,3	-76,3
1,566	7,9	-75,0
1,5665	13,5	-74,6
1,567	15,8	-75,3
1,5675	14,9	-76,7
1,568	11,6	-77,9
1,5685	6,6	-79,0
1,569	1,0	-79,8
1,5695	-3,3	-80,0
1,57	-3,8	-78,9
1,5705	0,1	-76,4
1,571	6,4	-73,0
1,5715	12,8	-69,7
1,572	17,5	-67,2
1,5725	19,9	-66,0
1,573	19,6	-66,9
1,5735	16,1	-69,5
1,574	10,3	-73,0
1,5745	4,0	-75,9
1,575	-0,5	-77,2
1,5755	-2,5	-76,9
1,576	-2,9	-76,0
1,5765	-3,1	-74,8
1,577	-3,8	-73,7
1,5775	-5,4	-72,7
1,578	-8,8	-72,4
1,5785	-14,3	-73,0
1,579	-21,2	-74,1
1,5795	-27,3	-75,3
1,58	-30,7	-76,2
1,5805	-30,6	-76,9
1,581	-27,3	-77,5
1,5815	-21,2	-77,4
1,582	-13,3	-76,4
1,5825	-4,8	-74,8
1,583	2,6	-73,7
1,5835	7,3	-73,8
1,584	9,2	-75,2
1,5845	9,0	-77,1
1,585	7,7	-79,2
1,5855	5,7	-81,1
1,586	3,7	-82,6
1,5865	3,0	-83,2
1,587	4,7	-82,5
1,5875	8,6	-81,3
1,588	13,7	-79,9
1,5885	18,8	-78,5
1,589	23,1	-77,0
1,5895	26,0	-75,6
1,59	27,0	-75,1
1,5905	26,7	-75,9
1,591	26,3	-77,9
1,5915	27,5	-79,8
1,592	31,0	-80,5
1,5925	35,8	-79,7
1,593	40,2	-77,8
1,5935	42,9	-75,5
1,594	44,2	-73,4
1,5945	44,4	-72,3
1,595	43,1	-72,4
1,5955	40,2	-73,6
1,596	36,5	-75,4
1,5965	33,3	-77,3
1,597	31,7	-78,9
1,5975	31,5	-80,1
1,598	32,6	-80,3
1,5985	34,9	-79,2
1,599	37,9	-76,9
1,5995	40,1	-74,4
1,6	39,7	-72,8
1,6005	36,1	-72,6
1,601	30,3	-73,7
1,6015	23,6	-75,4
1,602	16,9	-77,3
1,6025	10,7	-78,9
1,603	5,7	-79,6
1,6035	2,1	-78,6
1,604	-0,7	-76,3
1,6045	-3,3	-73,7
1,605	-5,8	-71,8
1,6055	-7,7	-71,1
1,606	-9,4	-71,8
1,6065	-12,2	-73,9
1,607	-15,8	-76,9
1,6075	-19,3	-80,2
1,608	-20,4	-82,8
1,6085	-18,2	-83,9
1,609	-13,4	-83,7
1,6095	-7,7	-82,2
1,61	-3,1	-80,0
1,6105	-0,8	-77,8
1,611	-2,1	-76,1
1,6115	-7,9	-75,9
1,612	-17,3	-77,1
1,6125	-27,9	-79,1
1,613	-36,6	-81,3
1,6135	-41,5	-82,9
1,614	-42,2	-84,1
1,6145	-38,3	-84,3
1,615	-29,9	-82,9
1,6155	-18,1	-80,4
1,616	-5,6	-77,5
1,6165	4,2	-75,3
1,617	9,9	-74,1
1,6175	12,2	-73,7
1,618	12,8	-74,0
1,6185	12,4	-74,9
1,619	11,0	-76,6
1,6195	9,4	-78,2
1,62	8,9	-79,1
1,6205	10,0	-79,0
1,621	11,7	-78,3
1,6215	12,3	-77,3
1,622	11,2	-76,2
1,6225	8,8	-75,3
1,623	5,3	-75,6
1,6235	1,2	-77,1
1,624	-3,2	-79,4
1,6245	-6,4	-81,4
1,625	-7,1	-81,8
1,6255	-5,0	-80,6
1,626	-0,7	-78,5
1,6265	4,9	-76,3
1,627	11,3	-74,7
1,6275	17,3	-73,9
1,628	21,5	-74,7
1,6285	22,7	-77,1
1,629	21,1	-80,3
1,6295	18,4	-83,5
1,63	16,2	-85,8
1,6305	15,2	-87,4
1,631	15,7	-88,3
1,6315	18,0	-88,3
1,632	22,0	-87,6
1,6325	26,4	-86,3
1,633	29,1	-85,4
1,6335	28,5	-85,7
1,634	24,7	-87,2
1,6345	18,7	-89,3
1,635	11,2	-91,5
1,6355	2,6	-93,6
1,636	-5,7	-95,0
1,6365	-11,3	-94,8
1,637	-12,7	-93,3
1,6375	-10,5	-91,3
1,638	-6,9	-89,9
1,6385	-3,9	-89,5
1,639	-2,5	-89,9
1,6395	-3,4	-90,7
1,64	-7,0	-92,0
1,6405	-12,8	-93,7
1,641	-19,1	-95,3
1,6415	-23,4	-95,9
1,642	-24,2	-95,3
1,6425	-21,7	-93,9
1,643	-16,9	-92,3
1,6435	-10,9	-90,6
1,644	-4,7	-88,9
1,6445	-0,1	-88,0
1,645	1,3	-88,3
1,6455	-0,5	-89,6
1,646	-3,8	-91,1
1,6465	-6,6	-91,9
1,647	-7,5	-91,7
1,6475	-6,3	-90,8
1,648	-2,7	-89,0
1,6485	2,7	-86,4
1,649	8,7	-83,2
1,6495	13,7	-80,4
1,65	15,8	-79,4
1,6505	14,7	-80,7
1,651	10,7	-83,8
1,6515	5,1	-87,8
1,652	-1,3	-91,6
1,6525	-7,4	-94,2
1,653	-11,6	-94,8
1,6535	-12,5	-93,3
1,654	-10,7	-90,7
1,6545	-8,4	-88,7
1,655	-7,7	-88,1
1,6555	-8,6	-88,4
1,656	-10,4	-88,9
1,6565	-13,4	-89,5
1,657	-18,0	-90,4
1,6575	-23,8	-91,2
1,658	-28,8	-91,6
1,6585	-31,0	-91,3
1,659	-29,8	-90,7
1,6595	-26,0	-90,5
1,66	-20,8	-90,3
1,6605	-15,1	-89,8
1,661	-11,1	-89,0
1,6615	-11,0	-88,5
1,662	-15,5	-88,5
1,6625	-23,3	-89,0
1,663	-32,2	-90,0
1,6635	-41,0	-91,3
1,664	-49,6	-92,6
1,6645	-57,7	-93,4
1,665	-64,2	-93,1
1,6655	-67,7	-91,6
1,666	-67,9	-89,5
1,6665	-66,7	-88,3
1,667	-65,6	-88,8
1,6675	-65,0	-91,2
1,668	-64,4	-94,5
1,6685	-63,6	-98,1
1,669	-62,5	-101,1
1,6695	-60,6	-102,6
1,67	-56,7	-102,3
1,6705	-50,8	-100,6
1,671	-43,4	-98,7
1,6715	-35,6	-97,6
1,672	-27,9	-97,5
1,6725	-21,2	-98,2
1,673	-16,5	-99,5
1,6735	-14,7	-101,2
1,674	-15,0	-103,2
1,6745	-15,7	-104,7
1,675	-14,6	-104,8
1,6755	-10,6	-103,2
1,676	-4,0	-100,2
1,6765	4,3	-96,9
1,677	12,7	-93,9
1,6775	20,3	-91,8
1,678	25,3	-90,6
1,6785	27,0	-90,4
1,679	25,5	-90,7
1,6795	22,7	-90,8
1,68	19,9	-90,9
1,6805	18,1	-91,2
1,681	17,7	-91,4
1,6815	19,3	-90,9
1,682	22,9	-89,2
1,6825	27,4	-86,8
1,683	30,8	-84,8
1,6835	31,4	-84,1
1,684	29,0	-84,8
1,6845	24,9	-86,4
1,685	20,0	-88,6
1,6855	15,0	-91,2
1,686	10,8	-93,3
1,6865	9,3	-93,9
1,687	11,0	-92,8
1,6875	14,3	-90,4
1,688	16,6	-88,1
1,6885	16,1	-86,8
1,689	12,8	-86,5
1,6895	6,8	-87,3
1,69	-1,3	-89,0
1,6905	-10,7	-91,1
1,691	-19,7	-92,8
1,6915	-26,1	-93,3
1,692	-28,8	-92,5
1,6925	-28,6	-90,9
1,693	-26,3	-89,3
1,6935	-22,8	-87,7
1,694	-18,8	-86,5
1,6945	-15,8	-86,5
1,695	-15,1	-87,8
1,6955	-16,8	-89,7
1,696	-19,2	-91,3
1,6965	-20,6	-91,9
1,697	-19,9	-91,8
1,6975	-16,9	-91,1
1,698	-11,3	-90,0
1,6985	-3,4	-88,1
1,699	5,5	-85,5
1,6995	13,3	-83,3
1,7	17,8	-82,2
1,7005	18,8	-82,8
1,701	16,5	-84,7
1,7015	11,9	-87,8
1,702	5,7	-91,5
1,7025	-1,0	-95,0
1,703	-6,5	-97,1
1,7035	-9,2	-97,3
1,704	-9,3	-96,2
1,7045	-7,6	-94,6
1,705	-5,6	-93,3
1,7055	-3,8	-92,6
1,706	-3,0	-92,8
1,7065	-4,4	-94,4
1,707	-8,2	-97,1
1,7075	-13,2	-100,1
1,708	-16,9	-101,7
1,7085	-17,3	-100,9
1,709	-14,8	-97,7
1,7095	-10,9	-93,0
1,71	-7,0	-88,1
1,7105	-3,9	-83,8
1,711	-2,2	-81,3
1,7115	-2,7	-81,0
1,712	-5,4	-82,5
1,7125	-8,8	-84,6
1,713	-10,6	-85,8
1,7135	-9,8	-85,9
1,714	-6,8	-85,1
1,7145	-2,6	-83,6
1,715	1,6	-81,4
1,7155	4,6	-78,8
1,716	5,3	-76,5
1,7165	2,8	-75,6
1,717	-2,6	-76,7
1,7175	-9,5	-79,3
1,718	-17,1	-82,7
1,7185	-25,2	-86,1
1,719	-33,6	-89,0
1,7195	-41,1	-90,4
1,72	-46,2	-89,9
1,7205	-48,5	-87,6
1,721	-49,0	-84,7
1,7215	-48,9	-82,4
1,722	-48,6	-81,3
1,7225	-48,0	-81,5
1,723	-47,9	-83,0
1,7235	-49,2	-85,7
1,724	-51,9	-88,6
1,7245	-54,8	-90,8
1,725	-55,8	-91,1
1,7255	-53,3	-89,9
1,726	-47,6	-87,6
1,7265	-39,7	-84,9
1,727	-30,8	-82,3
1,7275	-22,4	-79,8
1,728	-16,6	-78,3
1,7285	-14,2	-78,0
1,729	-14,6	-78,4
1,7295	-15,8	-79,0
1,73	-16,0	-79,5
1,7305	-14,8	-79,7
1,731	-11,5	-79,3
1,7315	-5,8	-77,8
1,732	2,4	-75,1
1,7325	12,1	-72,0
1,733	20,6	-69,8
1,7335	25,3	-69,2
1,734	25,3	-69,8
1,7345	21,6	-71,3
1,735	15,8	-73,1
1,7355	9,3	-75,2
1,736	3,3	-76,8
1,7365	-0,9	-77,2
1,737	-3,2	-76,3
1,7375	-4,5	-74,7
1,738	-6,0	-73,1
1,7385	-7,8	-72,2
1,739	-9,7	-72,0
1,7395	-11,7	-72,9
1,74	-14,1	-75,0
1,7405	-16,9	-77,9
1,741	-19,1	-80,7
1,7415	-19,3	-82,2
1,742	-17,0	-82,0
1,7425	-13,3	-80,3
1,743	-9,7	-77,9
1,7435	-7,1	-75,0
1,744	-5,5	-71,9
1,7445	-5,8	-69,3
1,745	-8,8	-67,9
1,7455	-14,4	-67,6
1,746	-21,3	-67,7
1,7465	-27,6	-67,4
1,747	-32,1	-66,8
1,7475	-34,5	-65,9
1,748	-34,6	-64,6
1,7485	-32,6	-62,9
1,749	-29,3	-61,2
1,7495	-26,3	-60,3
1,75	-25,0	-60,7
1,7505	-25,4	-62,1
1,751	-26,8	-64,0
1,7515	-28,3	-66,1
1,752	-29,5	-68,4
1,7525	-29,8	-70,4
1,753	-27,7	-71,6
1,7535	-22,5	-71,4
1,754	-15,0	-70,6
1,7545	-7,0	-70,0
1,755	-0,3	-69,9
1,7555	4,5	-70,4
1,756	6,8	-71,8
1,7565	6,5	-74,1
1,757	4,3	-77,3
1,7575	1,6	-80,5
1,758	0,7	-83,0
1,7585	3,0	-84,2
1,759	8,0	-84,1
1,7595	13,8	-83,0
1,76	19,0	-81,5
1,7605	23,3	-80,0
1,761	26,8	-79,1
1,7615	28,3	-79,2
1,762	27,4	-80,1
1,7625	24,6	-81,2
1,763	21,0	-81,6
1,7635	17,2	-81,2
1,764	13,2	-80,4
1,7645	9,5	-79,1
1,765	6,8	-77,4
1,7655	4,6	-75,2
1,766	1,7	-73,1
1,7665	-3,8	-71,9
1,767	-12,8	-72,0
1,7675	-25,1	-72,9
1,768	-39,6	-74,0
1,7685	-54,9	-74,7
1,769	-69,0	-74,9
1,7695	-79,3	-74,4
1,77	-83,8	-72,9
1,7705	-83,1	-70,9
1,771	-80,3	-69,2
1,7715	-77,8	-68,6
1,772	-76,3	-69,5
1,7725	-75,6	-71,7
1,773	-75,9	-75,0
1,7735	-77,6	-78,8
1,774	-79,8	-82,7
1,7745	-80,2	-85,7
1,775	-76,5	-86,9
1,7755	-68,6	-86,3
1,776	-58,2	-84,3
1,7765	-47,0	-81,5
1,777	-36,0	-78,4
1,7775	-25,6	-75,8
1,778	-16,3	-74,5
1,7785	-9,1	-74,8
1,779	-3,8	-76,0
1,7795	-0,1	-77,2
1,78	2,1	-77,8
1,7805	2,4	-77,5
1,781	1,6	-76,6
1,7815	1,3	-74,8
1,782	3,4	-72,2
1,7825	8,0	-69,1
1,783	13,0	-66,5
1,7835	16,1	-65,3
1,784	16,0	-65,8
1,7845	13,3	-67,9
1,785	9,3	-70,9
1,7855	5,4	-74,2
1,786	2,7	-76,6
1,7865	2,2	-77,5
1,787	4,2	-76,9
1,7875	7,3	-75,7
1,788	10,0	-74,8
1,7885	11,5	-74,7
1,789	11,9	-75,4
1,7895	11,2	-77,1
1,79	9,2	-79,8
1,7905	6,3	-83,3
1,791	3,5	-86,7
1,7915	1,8	-88,6
1,792	1,6	-88,5
1,7925	2,6	-86,5
1,793	4,1	-83,4
1,7935	5,4	-79,9
1,794	5,9	-77,0
1,7945	4,4	-75,7
1,795	-0,4	-76,5
1,7955	-8,2	-78,6
1,796	-17,6	-80,1
1,7965	-26,8	-79,8
1,797	-34,4	-77,9
1,7975	-39,8	-75,5
1,798	-42,4	-73,3
1,7985	-42,0	-71,3
1,799	-39,8	-69,2
1,7995	-37,8	-67,6
1,8	-38,2	-67,0
1,8005	-41,5	-67,4
1,801	-46,9	-68,5
1,8015	-53,1	-70,0
1,802	-59,1	-71,5
1,8025	-63,6	-72,9
1,803	-65,1	-73,4
1,8035	-62,8	-72,7
1,804	-57,3	-71,3
1,8045	-50,3	-70,2
1,805	-43,5	-69,9
1,8055	-37,4	-70,2
1,806	-32,6	-70,9
1,8065	-29,5	-72,4
1,807	-28,3	-74,8
1,8075	-28,1	-77,7
1,808	-27,2	-79,9
1,8085	-24,4	-80,5
1,809	-20,0	-79,3
1,8095	-14,9	-76,9
1,81	-9,5	-74,3
1,8105	-4,1	-72,2
1,811	0,5	-71,0
1,8115	3,2	-71,1
1,812	3,6	-72,3
1,8125	2,9	-73,7
1,813	2,5	-74,5
1,8135	2,7	-74,3
1,814	3,2	-73,4
1,8145	4,4	-71,7
1,815	6,8	-69,1
1,8155	10,6	-65,8
1,816	14,7	-62,6
1,8165	17,3	-60,7
1,817	17,0	-60,7
1,8175	14,1	-62,4
1,818	9,3	-65,1
1,8185	3,6	-68,0
1,819	-2,2	-70,5
1,8195	-6,9	-71,9
1,82	-9,2	-71,8
1,8205	-9,1	-70,5
1,821	-7,7	-69,0
1,8215	-6,8	-68,1
1,822	-7,2	-68,0
1,8225	-9,2	-68,7
1,823	-13,2	-70,3
1,8235	-18,8	-72,5
1,824	-25,0	-75,1
1,8245	-30,0	-77,3
1,825	-31,9	-78,4
1,8255	-30,2	-78,1
1,826	-25,8	-76,8
1,8265	-20,0	-75,1
1,827	-13,9	-73,3
1,8275	-8,7	-71,8
1,828	-5,5	-71,1
1,8285	-4,9	-71,3
1,829	-6,5	-71,7
1,8295	-9,1	-71,6
1,83	-11,5	-71,1
1,8305	-13,3	-70,6
1,831	-13,8	-70,3
1,8315	-12,5	-69,8
1,832	-9,4	-68,8
1,8325	-5,3	-67,4
1,833	-2,2	-66,6
1,8335	-1,5	-67,3
1,834	-3,1	-69,5
1,8345	-5,8	-72,7
1,835	-8,3	-76,3
1,8355	-10,1	-80,1
1,836	-10,5	-82,9
1,8365	-8,9	-84,1
1,837	-5,5	-83,4
1,8375	-1,4	-81,7
1,838	1,9	-80,0
1,8385	3,3	-78,8
1,839	2,4	-78,1
1,8395	-0,8	-77,8
1,84	-5,8	-78,5
1,8405	-11,7	-80,3
1,841	-17,2	-82,5
1,8415	-21,3	-84,0
1,842	-23,4	-83,9
1,8425	-23,6	-82,3
1,843	-22,3	-79,8
1,8435	-20,2	-76,8
1,844	-18,3	-73,9
1,8445	-18,2	-72,2
1,845	-21,0	-72,4
1,8455	-25,7	-74,3
1,846	-30,0	-76,7
1,8465	-32,4	-78,4
1,847	-33,1	-79,5
1,8475	-33,0	-79,8
1,848	-31,9	-79,0
1,8485	-28,8	-76,8
1,849	-24,2	-73,8
1,8495	-19,9	-71,5
1,85	-18,2	-71,0
1,8505	-19,4	-72,4
1,851	-22,5	-74,9
1,8515	-26,2	-77,6
1,852	-29,8	-79,8
1,8525	-32,4	-81,3
1,853	-32,6	-81,8
1,8535	-29,4	-81,4
1,854	-23,5	-80,6
1,8545	-15,9	-80,1
1,855	-7,6	-79,8
1,8555	0,8	-79,8
1,856	8,4	-80,2
1,8565	13,5	-81,5
1,857	15,0	-83,7
1,8575	13,3	-86,1
1,858	10,1	-87,6
1,8585	7,7	-87,3
1,859	6,8	-85,4
1,8595	7,2	-83,1
1,86	8,0	-81,0
1,8605	8,5	-79,4
1,861	7,8	-78,6
1,8615	5,0	-79,1
1,862	0,5	-80,8
1,8625	-4,2	-82,8
1,863	-7,3	-83,8
1,8635	-8,5	-83,3
1,864	-8,7	-82,0
1,8645	-8,3	-79,9
1,865	-7,3	-77,3
1,8655	-5,7	-74,3
1,866	-4,3	-71,6
1,8665	-4,6	-70,5
1,867	-7,3	-71,4
1,8675	-12,7	-73,8
1,868	-20,3	-76,6
1,8685	-29,0	-78,9
1,869	-37,4	-80,0
1,8695	-43,4	-79,6
1,87	-45,7	-77,6
1,8705	-44,4	-75,2
1,871	-40,7	-73,5
1,8715	-36,2	-72,9
1,872	-31,9	-73,0
1,8725	-28,3	-73,3
1,873	-25,8	-73,8
1,8735	-24,5	-75,0
1,874	-24,1	-76,5
1,8745	-23,3	-77,7
1,875	-20,6	-77,5
1,8755	-15,7	-76,3
1,876	-9,1	-74,6
1,8765	-2,0	-72,7
1,877	4,7	-70,6
1,8775	9,8	-68,5
1,878	11,9	-67,0
1,8785	10,6	-66,7
1,879	7,5	-67,5
1,8795	5,3	-68,6
1,88	5,3	-69,4
1,8805	6,9	-69,8
1,881	9,1	-69,5
1,8815	11,4	-68,2
1,882	14,4	-65,9
1,8825	18,0	-63,3
1,883	21,1	-61,6
1,8835	21,6	-61,7
1,884	18,8	-63,3
1,8845	12,5	-65,7
1,885	3,8	-68,0
1,8855	-6,3	-69,8
1,886	-15,3	-70,5
1,8865	-20,4	-69,6
1,887	-20,2	-67,5
1,8875	-15,6	-65,3
1,888	-9,1	-63,9
1,8885	-3,1	-63,8
1,889	1,4	-64,9
1,8895	3,2	-67,1
1,89	1,8	-70,3
1,8905	-2,4	-74,1
1,891	-7,6	-77,3
1,8915	-11,0	-78,8
1,892	-10,7	-78,3
1,8925	-6,6	-76,4
1,893	0,4	-74,0
1,8935	9,3	-71,6
1,894	18,6	-69,6
1,8945	26,0	-68,6
1,895	29,1	-68,9
1,8955	27,6	-70,3
1,896	22,7	-71,7
1,8965	16,8	-72,5
1,897	11,3	-72,7
1,8975	7,2	-72,6
1,898	5,1	-71,8
1,8985	5,3	-69,8
1,899	6,8	-66,9
1,8995	8,0	-64,3
1,9	7,1	-63,3
1,9005	3,7	-64,1
1,901	-1,3	-66,1
1,9015	-6,4	-68,5
1,902	-10,5	-70,5
1,9025	-12,2	-71,9
1,903	-10,7	-72,0
1,9035	-6,5	-70,6
1,904	-1,5	-68,6
1,9045	2,5	-66,9
1,905	5,1	-66,6
1,9055	6,8	-67,5
1,906	7,5	-69,5
1,9065	6,3	-72,3
1,907	2,9	-75,6
1,9075	-2,1	-78,2
1,908	-6,5	-78,9
1,9085	-8,5	-77,4
1,909	-7,6	-74,3
1,9095	-3,7	-71,0
1,91	3,1	-68,3
1,9105	11,9	-66,2
1,911	20,8	-64,7
1,9115	26,6	-64,0
1,912	27,8	-64,0
1,9125	24,7	-64,1
1,913	19,2	-63,9
1,9135	13,1	-63,3
1,914	7,9	-62,8
1,9145	5,0	-62,3
1,915	5,0	-61,5
1,9155	7,5	-60,3
1,916	10,4	-58,9
1,9165	11,2	-58,0
1,917	8,6	-58,0
1,9175	3,0	-58,8
1,918	-3,9	-60,1
1,9185	-10,4	-61,6
1,919	-15,0	-62,8
1,9195	-16,9	-63,3
1,92	-16,0	-63,1
1,9205	-13,8	-62,6
1,921	-12,2	-62,5
1,9215	-12,9	-63,0
1,922	-16,3	-63,7
1,9225	-22,0	-64,2
1,923	-29,6	-64,8
1,9235	-37,8	-65,9
1,924	-45,1	-67,7
1,9245	-49,7	-69,5
1,925	-50,8	-70,8
1,9255	-49,1	-71,0
1,926	-45,9	-70,4
1,9265	-41,9	-69,1
1,927	-37,1	-67,3
1,9275	-32,1	-65,6
1,928	-28,2	-65,2
1,9285	-26,5	-66,1
1,929	-26,7	-67,8
1,9295	-27,4	-69,2
1,93	-27,1	-69,7
1,9305	-25,5	-69,4
1,931	-22,1	-68,2
1,9315	-16,1	-65,7
1,932	-7,3	-62,3
1,9325	3,2	-58,8
1,933	13,3	-56,3
1,9335	20,8	-55,7
1,934	25,0	-56,7
1,9345	26,2	-58,8
1,935	25,4	-61,3
1,9355	23,7	-63,5
1,936	22,5	-64,7
1,9365	24,2	-64,2
1,937	29,7	-61,9
1,9375	38,2	-58,8
1,938	47,6	-56,0
1,9385	55,9	-54,5
1,939	62,1	-54,8
1,9395	65,3	-56,4
1,94	64,4	-58,8
1,9405	59,5	-61,4
1,941	52,4	-63,6
1,9415	45,9	-64,8
1,942	42,2	-64,7
1,9425	41,3	-63,9
1,943	42,6	-62,6
1,9435	44,7	-60,9
1,944	46,6	-59,2
1,9445	46,6	-58,4
1,945	43,2	-59,1
1,9455	36,8	-61,1
1,946	29,5	-63,1
1,9465	23,3	-64,4
1,947	18,9	-64,9
1,9475	16,1	-64,8
1,948	14,9	-64,1
1,9485	15,7	-62,9
1,949	18,1	-61,4
1,9495	20,7	-60,3
1,95	21,7	-60,1
1,9505	20,8	-61,1
1,951	18,5	-63,0
1,9515	15,7	-65,3
1,952	13,3	-67,5
1,9525	11,8	-69,1
1,953	12,3	-69,7
1,9535	15,5	-69,2
1,954	20,8	-68,1
1,9545	27,2	-67,2
1,955	33,0	-66,9
1,9555	37,4	-67,2
1,956	39,8	-68,0
1,9565	39,3	-69,5
1,957	35,0	-71,5
1,9575	27,5	-73,5
1,958	18,9	-74,2
1,9585	11,7	-73,0
1,959	7,3	-70,4
1,9595	5,8	-67,2
1,96	6,2	-64,2
1,9605	7,6	-61,9
1,961	8,9	-61,0
1,9615	9,1	-62,0
1,962	8,2	-64,6
1,9625	7,3	-67,6
1,963	8,1	-69,8
1,9635	11,0	-70,7
1,964	15,9	-70,5
1,9645	22,2	-69,7
1,965	29,4	-68,3
1,9655	37,3	-66,3
1,966	44,3	-64,2
1,9665	48,5	-62,6
1,967	49,4	-62,2
1,9675	47,8	-63,2
1,968	45,3	-65,0
1,9685	42,5	-67,2
1,969	39,6	-69,1
1,9695	37,1	-70,2
1,97	36,1	-70,3
1,9705	36,5	-69,6
1,971	37,0	-68,6
1,9715	36,2	-67,7
1,972	33,2	-66,9
1,9725	27,8	-66,5
1,973	19,9	-67,3
1,9735	9,7	-69,6
1,974	-1,3	-72,7
1,9745	-10,4	-75,4
1,975	-14,9	-76,4
1,9755	-14,2	-75,3
1,976	-9,3	-72,4
1,9765	-2,3	-68,7
1,977	4,8	-64,7
1,9775	10,3	-61,2
1,978	12,3	-59,4
1,9785	9,8	-59,5
1,979	4,1	-61,2
1,9795	-2,7	-63,4
1,98	-8,6	-65,2
1,9805	-13,1	-66,3
1,981	-16,2	-66,3
1,9815	-17,2	-65,2
1,982	-15,8	-63,0
1,9825	-12,4	-60,7
1,983	-8,8	-59,2
1,9835	-6,4	-58,9
1,984	-5,5	-59,8
1,9845	-5,8	-61,2
1,985	-7,8	-62,7
1,9855	-11,9	-64,1
1,986	-17,3	-64,8
1,9865	-21,4	-64,0
1,987	-22,6	-61,7
1,9875	-21,0	-58,9
1,988	-18,0	-56,8
1,9885	-14,9	-56,0
1,989	-12,8	-56,4
1,9895	-12,3	-57,8
1,99	-13,9	-60,0
1,9905	-16,8	-62,3
1,991	-19,3	-63,8
1,9915	-19,8	-63,7
1,992	-17,5	-62,3
1,9925	-12,8	-60,2
1,993	-6,6	-57,8
1,9935	0,1	-55,3
1,994	6,3	-53,3
1,9945	10,5	-52,4
1,995	11,2	-53,3
1,9955	7,9	-55,3
1,996	1,6	-57,4
1,9965	-5,6	-58,6
1,997	-11,6	-58,7
1,9975	-14,3	-58,2
1,998	-12,0	-57,2
1,9985	-4,7	-55,4
1,999	6,5	-52,8
1,9995	18,5	-50,4
2	28,7	-49,1
2,0005	35,8	-49,2
2,001	39,6	-50,3
2,0015	40,2	-52,1
2,002	37,9	-54,3
2,0025	33,9	-56,0
2,003	30,2	-56,6
2,0035	28,7	-55,6
2,004	29,6	-53,8
2,0045	32,0	-52,0
2,005	34,6	-50,7
2,0055	36,6	-49,9
2,006	36,4	-49,8
2,0065	33,2	-50,8
2,007	26,8	-53,2
2,0075	18,8	-56,2
2,008	11,7	-58,6
2,0085	7,0	-59,5
2,009	5,3	-58,8
2,0095	5,7	-57,0
2,01	7,9	-54,7
2,0105	11,5	-52,3
2,011	15,1	-50,6
2,0115	17,1	-50,3
2,012	16,8	-51,4
2,0125	14,8	-53,2
2,013	12,6	-54,8
2,0135	10,4	-55,8
2,014	8,2	-56,3
2,0145	6,5	-56,0
2,015	6,3	-55,1
2,0155	7,9	-53,5
2,016	9,8	-52,0
2,0165	10,0	-51,4
2,017	7,7	-52,2
2,0175	3,5	-54,0
2,018	-1,6	-56,3
2,0185	-7,3	-58,4
2,019	-12,8	-60,0
2,0195	-16,3	-60,4
2,02	-16,1	-59,4
2,0205	-12,5	-57,3
2,021	-7,2	-54,9
2,0215	-2,1	-53,2
2,022	1,7	-52,3
2,0225	3,5	-52,5
2,023	2,7	-53,8
2,0235	-0,7	-56,3
2,024	-5,8	-59,5
2,0245	-10,6	-62,3
2,025	-13,3	-63,5
2,0255	-13,3	-62,7
2,026	-11,3	-60,2
2,0265	-8,0	-57,1
2,027	-4,5	-54,1
2,0275	-2,5	-51,7
2,028	-3,7	-50,4
2,0285	-8,7	-50,5
2,029	-16,2	-51,3
2,0295	-23,8	-52,1
2,03	-29,7	-52,6
2,0305	-32,9	-52,7
2,031	-33,0	-52,6
2,0315	-29,5	-51,9
2,032	-22,4	-50,8
2,0325	-13,3	-49,5
2,033	-5,2	-49,2
2,0335	0,0	-50,3
2,034	1,9	-52,5
2,0345	1,2	-55,5
2,035	-1,3	-58,8
2,0355	-4,2	-62,1
2,036	-6,3	-64,5
2,0365	-5,7	-65,3
2,037	-2,2	-64,5
2,0375	3,1	-62,8
2,038	8,4	-60,9
2,0385	12,6	-59,4
2,039	15,2	-58,3
2,0395	15,5	-57,9
2,04	13,0	-58,4
2,0405	7,8	-59,8
2,041	1,4	-61,4
2,0415	-3,7	-62,0
2,042	-6,2	-61,1
2,0425	-5,8	-59,0
2,043	-3,4	-56,5
2,0435	-0,1	-54,1
2,044	3,3	-52,6
2,0445	5,1	-52,5
2,045	3,9	-53,7
2,0455	-0,4	-55,5
2,046	-6,4	-56,8
2,0465	-12,5	-57,1
2,047	-18,3	-56,6
2,0475	-23,4	-55,9
2,048	-26,8	-55,2
2,0485	-27,8	-54,2
2,049	-27,2	-53,3
2,0495	-27,4	-52,7
2,05	-30,3	-52,9
2,0505	-36,5	-53,9
2,051	-44,9	-55,7
2,0515	-54,2	-57,9
2,052	-62,8	-60,4
2,0525	-69,1	-62,7
2,053	-71,5	-63,6
2,0535	-69,5	-63,0
2,054	-64,0	-61,5
2,0545	-56,5	-60,0
2,055	-48,5	-59,1
2,0555	-40,9	-58,7
2,056	-34,7	-58,8
2,0565	-30,5	-59,4
2,057	-28,4	-60,5
2,0575	-28,2	-61,3
2,058	-28,9	-60,6
2,0585	-29,1	-58,0
2,059	-28,4	-54,2
2,0595	-27,2	-50,1
2,06	-25,8	-46,7
2,0605	-23,6	-44,3
2,061	-20,6	-43,3
2,0615	-16,8	-44,0
2,062	-12,5	-46,0
2,0625	-7,7	-48,4
2,063	-2,3	-50,3
2,0635	3,4	-51,4
2,064	9,1	-52,1
2,0645	14,9	-52,4
2,065	21,1	-52,1
2,0655	28,0	-51,2
2,066	34,5	-50,2
2,0665	38,3	-50,0
2,067	38,3	-50,7
2,0675	34,5	-52,1
2,068	28,0	-53,3
2,0685	20,0	-54,4
2,069	11,7	-55,1
2,0695	5,1	-55,1
2,07	1,9	-54,3
2,0705	2,5	-52,9
2,071	5,4	-51,7
2,0715	8,7	-50,8
2,072	11,1	-50,2
2,0725	12,0	-50,0
2,073	10,9	-50,4
2,0735	8,1	-51,8
2,074	4,6	-53,5
2,0745	2,1	-54,7
2,075	1,7	-54,7
2,0755	2,6	-53,9
2,076	3,2	-52,9
2,0765	2,7	-51,9
2,077	1,6	-50,9
2,0775	0,4	-50,5
2,078	-1,1	-51,3
2,0785	-3,6	-53,3
2,079	-6,7	-55,6
2,0795	-9,2	-57,2
2,08	-10,2	-57,9
2,0805	-9,7	-57,8
2,081	-7,7	-56,9
2,0815	-4,3	-54,9
2,082	0,8	-52,0
2,0825	6,8	-48,9
2,083	11,9	-47,0
2,0835	15,1	-46,8
2,084	15,9	-48,2
2,0845	14,7	-50,3
2,085	11,4	-52,4
2,0855	6,9	-54,1
2,086	2,9	-54,5
2,0865	1,4	-53,0
2,087	2,9	-50,1
2,0875	5,6	-46,9
2,088	7,3	-44,6
2,0885	6,9	-43,3
2,089	4,9	-42,9
2,0895	2,2	-43,7
2,09	-0,7	-45,7
2,0905	-2,8	-48,7
2,091	-3,1	-51,8
2,0915	-1,0	-53,8
2,092	2,8	-54,1
2,0925	6,2	-53,1
2,093	8,2	-51,0
2,0935	9,2	-48,4
2,094	9,8	-46,1
2,0945	9,8	-45,0
2,095	8,2	-46,1
2,0955	5,1	-49,0
2,096	1,9	-52,7
2,0965	-0,1	-55,9
2,097	-1,1	-57,9
2,0975	-1,6	-58,3
2,098	-1,9	-56,7
2,0985	-1,7	-53,3
2,099	-1,1	-48,6
2,0995	-1,3	-44,0
2,1	-3,2	-41,0
2,1005	-6,7	-40,3
2,101	-10,8	-41,8
2,1015	-14,9	-44,5
2,102	-18,9	-47,2
2,1025	-22,3	-48,6
2,103	-24,1	-48,3
2,1035	-23,7	-46,6
2,104	-21,4	-44,7
2,1045	-18,5	-43,3
2,105	-15,4	-42,4
2,1055	-12,6	-42,0
2,106	-10,7	-42,3
2,1065	-10,8	-43,5
2,107	-13,0	-45,8
2,1075	-15,5	-48,4
2,108	-16,3	-50,2
2,1085	-14,3	-50,6
2,109	-9,6	-50,0
2,1095	-3,2	-48,9
2,11	4,1	-47,6
2,1105	11,7	-46,3
2,111	18,0	-45,5
2,1115	21,3	-45,8
2,112	20,8	-47,2
2,1125	16,9	-49,0
2,113	11,6	-50,5
2,1135	6,3	-51,5
2,114	2,4	-51,9
2,1145	0,8	-51,6
2,115	1,7	-50,3
2,1155	4,0	-48,2
2,116	5,8	-46,2
2,1165	5,1	-45,3
2,117	1,7	-45,6
2,1175	-3,1	-47,0
2,118	-8,4	-48,8
2,1185	-14,2	-50,7
2,119	-20,6	-52,2
2,1195	-26,5	-52,9
2,12	-30,0	-52,3
2,1205	-30,6	-51,2
2,121	-28,8	-50,3
2,1215	-26,2	-50,0
2,122	-23,3	-50,3
2,1225	-20,8	-51,2
2,123	-20,0	-52,8
2,1235	-22,0	-55,0
2,124	-26,7	-57,2
2,1245	-32,3	-58,0
2,125	-36,8	-57,0
2,1255	-38,8	-54,8
2,126	-38,0	-52,2
2,1265	-34,6	-49,8
2,127	-29,0	-47,6
2,1275	-22,3	-46,1
2,128	-15,6	-45,8
2,1285	-9,8	-46,9
2,129	-5,1	-48,8
2,1295	-1,1	-50,3
2,13	2,3	-50,8
2,1305	4,9	-50,4
2,131	7,2	-49,2
2,1315	9,9	-47,2
2,132	13,6	-44,7
2,1325	16,8	-42,3
2,133	17,2	-40,8
2,1335	13,5	-40,8
2,134	6,3	-42,2
2,1345	-2,7	-44,7
2,135	-12,1	-48,0
2,1355	-20,6	-51,5
2,136	-26,9	-54,2
2,1365	-29,5	-55,2
2,137	-28,2	-54,8
2,1375	-24,3	-53,7
2,138	-19,2	-52,8
2,1385	-13,9	-52,2
2,139	-9,3	-52,0
2,1395	-6,8	-52,5
2,14	-7,3	-54,0
2,1405	-10,6	-56,0
2,141	-14,7	-57,4
2,1415	-16,6	-57,3
2,142	-14,7	-55,9
2,1425	-8,9	-53,9
2,143	-0,1	-51,9
2,1435	10,4	-50,3
2,144	20,9	-49,6
2,1445	29,0	-50,0
2,145	33,0	-51,8
2,1455	33,1	-54,4
2,146	30,9	-56,8
2,1465	28,0	-58,5
2,147	24,6	-59,3
2,1475	20,6	-59,2
2,148	16,7	-57,7
2,1485	13,0	-54,8
2,149	9,3	-51,5
2,1495	4,1	-49,2
2,15	-2,8	-48,8
2,1505	-10,1	-50,3
2,151	-16,3	-52,6
2,1515	-20,7	-55,0
2,152	-23,7	-56,9
2,1525	-25,5	-58,1
2,153	-25,1	-58,2
2,1535	-22,1	-57,0
2,154	-17,2	-55,0
2,1545	-12,3	-52,9
2,155	-8,7	-51,7
2,1555	-6,3	-51,6
2,156	-4,6	-52,8
2,1565	-4,0	-55,4
2,157	-4,5	-59,0
2,1575	-5,9	-62,8
2,158	-6,7	-65,3
2,1585	-5,8	-65,9
2,159	-3,4	-64,9
2,1595	-0,1	-62,8
2,16	3,3	-60,2
2,1605	6,4	-57,5
2,161	8,4	-55,1
2,1615	8,1	-53,9
2,162	5,7	-54,0
2,1625	2,8	-55,0
2,163	1,4	-55,8
2,1635	2,2	-56,4
2,164	4,4	-56,8
2,1645	8,0	-56,9
2,165	13,0	-56,7
2,1655	18,9	-55,8
2,166	23,9	-54,7
2,1665	25,6	-53,8
2,167	23,1	-53,5
2,1675	17,2	-53,7
2,168	9,5	-54,1
2,1685	1,5	-54,4
2,169	-5,6	-54,3
2,1695	-10,2	-53,0
2,17	-11,5	-50,6
2,1705	-10,1	-48,0
2,171	-7,3	-46,3
2,1715	-4,5	-46,0
2,172	-2,3	-46,5
2,1725	-1,3	-47,0
2,173	-2,3	-47,3
2,1735	-5,9	-47,7
2,174	-11,2	-48,2
2,1745	-15,9	-48,5
2,175	-17,8	-48,2
2,1755	-16,0	-47,1
2,176	-11,0	-45,1
2,1765	-5,0	-42,6
2,177	0,3	-40,3
2,1775	3,3	-38,8
2,178	3,2	-39,1
2,1785	0,7	-41,1
2,179	-1,9	-43,8
2,1795	-2,3	-45,9
2,18	0,6	-47,1
2,1805	6,0	-47,7
2,181	13,0	-47,8
2,1815	21,2	-47,3
2,182	30,2	-45,9
2,1825	39,7	-44,2
2,183	48,5	-43,3
2,1835	55,1	-43,6
2,184	58,6	-45,3
2,1845	58,6	-47,7
2,185	55,4	-50,5
2,1855	49,5	-53,2
2,186	42,3	-54,8
2,1865	34,5	-54,7
2,187	24,6	-53,2
2,1875	10,8	-51,2
2,188	-7,3	-49,8
2,1885	-27,3	-49,2
2,189	-46,3	-49,5
2,1895	-62,9	-50,5
2,19	-77,1	-52,1
2,1905	-88,8	-53,9
2,191	-97,8	-55,0
2,1915	-103,0	-54,6
2,192	-103,9	-52,7
2,1925	-100,3	-50,1
2,193	-92,2	-47,6
2,1935	-80,1	-45,3
2,194	-65,2	-43,4
2,1945	-49,7	-42,4
2,195	-35,9	-42,7
2,1955	-24,7	-44,0
2,196	-15,4	-45,6
2,1965	-6,7	-46,7
2,197	2,3	-47,2
2,1975	11,4	-47,1
2,198	20,8	-46,1
2,1985	30,3	-44,0
2,199	39,0	-41,0
2,1995	45,3	-38,2
2,2	48,1	-36,6
2,2005	47,8	-36,4
2,201	45,3	-37,5
2,2015	41,5	-39,4
2,202	37,2	-41,7
2,2025	33,9	-43,7
2,203	33,8	-44,8
2,2035	37,5	-44,8
2,204	43,1	-44,1
2,2045	48,4	-43,4
2,205	51,7	-43,0
2,2055	52,7	-43,3
2,206	51,4	-44,6
2,2065	47,5	-47,1
2,207	41,5	-50,4
2,2075	34,2	-53,3
2,208	27,4	-54,7
2,2085	22,7	-54,1
2,209	20,9	-51,9
2,2095	21,9	-49,3
2,21	25,0	-46,8
2,2105	28,8	-44,8
2,211	31,2	-44,1
2,2115	30,5	-44,8
2,212	26,3	-46,6
2,2125	20,2	-48,6
2,213	13,9	-50,1
2,2135	8,8	-51,0
2,214	5,6	-51,7
2,2145	5,3	-51,7
2,215	8,1	-50,7
2,2155	13,5	-48,5
2,216	19,1	-45,8
2,2165	22,2	-43,9
2,217	21,7	-43,4
2,2175	17,7	-44,1
2,218	12,1	-45,9
2,2185	6,7	-48,4
2,219	3,3	-50,9
2,2195	3,3	-52,3
2,22	6,9	-51,8
2,2205	12,3	-49,7
2,221	16,1	-47,0
2,2215	16,2	-45,0
2,222	12,6	-44,1
2,2225	6,4	-44,7
2,223	-1,7	-46,7
2,2235	-11,5	-49,5
2,224	-21,9	-52,0
2,2245	-29,9	-53,0
2,225	-32,5	-51,9
2,2255	-28,7	-49,5
2,226	-19,5	-46,9
2,2265	-7,3	-45,1
2,227	5,3	-44,2
2,2275	16,1	-44,3
2,228	23,5	-45,4
2,2285	27,0	-47,3
2,229	27,9	-49,6
2,2295	28,1	-51,2
2,23	28,7	-51,7
2,2305	29,8	-51,2
2,231	31,8	-50,1
2,2315	35,6	-48,7
2,232	41,6	-46,9
2,2325	48,7	-44,9
2,233	54,4	-43,6
2,2335	57,0	-43,2
2,234	56,3	-43,8
2,2345	53,6	-45,2
2,235	50,0	-47,0
2,2355	46,7	-48,9
2,236	45,3	-50,0
2,2365	47,3	-49,6
2,237	52,4	-48,0
2,2375	58,8	-46,0
2,238	64,4	-44,4
2,2385	68,1	-43,6
2,239	69,4	-43,6
2,2395	67,7	-44,8
2,24	62,8	-46,9
2,2405	55,3	-49,5
2,241	47,4	-51,6
2,2415	41,7	-52,4
2,242	39,6	-51,6
2,2425	40,8	-49,6
2,243	43,7	-47,0
2,2435	47,1	-44,5
2,244	49,6	-42,6
2,2445	49,6	-42,0
2,245	46,1	-42,8
2,2455	39,7	-44,4
2,246	31,8	-45,9
2,2465	24,1	-46,6
2,247	17,3	-46,3
2,2475	11,9	-45,2
2,248	8,1	-43,1
2,2485	6,2	-40,2
2,249	5,5	-37,7
2,2495	4,9	-36,8
2,25	3,3	-38,4
2,2505	0,8	-41,7
2,251	-2,1	-45,4
2,2515	-4,6	-48,7
2,252	-6,0	-51,1
2,2525	-5,2	-52,4
2,253	-1,2	-52,1
2,2535	5,7	-50,2
2,254	13,7	-47,3
2,2545	20,6	-44,5
2,255	25,2	-42,7
2,2555	26,6	-41,9
2,256	24,4	-42,5
2,2565	18,5	-44,4
2,257	9,8	-47,3
2,2575	0,3	-50,1
2,258	-7,2	-51,4
2,2585	-11,1	-50,5
2,259	-11,3	-47,5
2,2595	-8,6	-43,4
2,26	-3,6	-39,2
2,2605	3,2	-35,7
2,261	10,0	-33,8
2,2615	15,1	-33,8
2,262	17,9	-35,2
2,2625	19,4	-36,8
2,263	20,7	-37,8
2,2635	22,0	-38,3
2,264	22,6	-38,1
2,2645	22,5	-37,0
2,265	22,3	-35,0
2,2655	22,9	-32,4
2,266	23,9	-30,3
2,2665	24,0	-29,9
2,267	22,3	-31,1
2,2675	19,0	-33,3
2,268	14,6	-35,7
2,2685	10,0	-37,5
2,269	5,9	-38,4
2,2695	4,1	-38,1
2,27	5,1	-36,7
2,2705	7,7	-34,7
2,271	10,3	-32,9
2,2715	11,7	-31,7
2,272	12,0	-31,3
2,2725	11,3	-31,9
2,273	8,8	-33,6
2,2735	4,3	-36,3
2,274	-1,2	-39,3
2,2745	-5,5	-41,6
2,275	-6,8	-42,2
2,2755	-4,8	-41,2
2,276	-0,2	-39,2
2,2765	6,0	-36,6
2,277	12,9	-34,2
2,2775	19,5	-32,4
2,278	24,6	-31,9
2,2785	27,6	-32,7
2,279	28,7	-34,1
2,2795	28,7	-35,3
2,28	28,8	-35,9
2,2805	29,3	-36,3
2,281	30,6	-36,5
2,2815	32,6	-36,2
2,282	35,4	-35,3
2,2825	38,2	-34,2
2,283	39,8	-33,8
2,2835	39,7	-34,7
2,284	38,3	-36,5
2,2845	36,4	-38,7
2,285	34,2	-40,4
2,2855	31,4	-41,1
2,286	28,3	-40,1
2,2865	26,3	-37,3
2,287	26,0	-33,9
2,2875	27,0	-31,3
2,288	28,6	-30,3
2,2885	30,0	-30,9
2,289	30,7	-32,0
2,2895	29,7	-33,4
2,29	26,2	-34,9
2,2905	20,5	-36,1
2,291	14,1	-36,3
2,2915	8,9	-35,0
2,292	6,0	-32,4
2,2925	5,5	-29,6
2,293	7,3	-27,6
2,2935	11,0	-26,6
2,294	15,8	-26,7
2,2945	19,6	-27,8
2,295	20,7	-29,7
2,2955	19,6	-31,7
2,296	17,8	-33,4
2,2965	16,8	-34,7
2,297	16,8	-35,5
2,2975	17,8	-35,9
2,298	20,3	-35,4
2,2985	24,3	-34,3
2,299	29,2	-33,1
2,2995	33,3	-32,8
2,3	34,9	-33,8
2,3005	33,3	-36,0
2,301	28,7	-38,6
2,3015	21,9	-41,3
2,302	13,7	-43,8
2,3025	5,4	-45,7
2,303	-1,7	-46,7
2,3035	-7,1	-46,4
2,304	-11,2	-45,5
2,3045	-14,4	-44,5
2,305	-16,7	-43,5
2,3055	-17,4	-42,6
2,306	-17,3	-42,5
2,3065	-17,6	-44,0
2,307	-18,9	-46,8
2,3075	-20,7	-49,8
2,308	-21,1	-51,4
2,3085	-18,9	-50,6
2,309	-14,3	-47,5
2,3095	-8,4	-43,0
2,31	-1,8	-38,1
2,3105	4,5	-33,9
2,311	9,5	-31,6
2,3115	11,9	-31,5
2,312	12,2	-33,1
2,3125	11,3	-35,2
2,313	10,8	-36,8
2,3135	10,9	-37,3
2,314	11,7	-37,0
2,3145	13,5	-35,6
2,315	16,8	-33,4
2,3155	21,6	-31,0
2,316	26,8	-29,2
2,3165	30,7	-28,8
2,317	32,3	-29,9
2,3175	31,5	-32,1
2,318	28,9	-34,8
2,3185	24,8	-37,5
2,319	20,0	-39,7
2,3195	16,6	-40,8
2,32	15,7	-40,3
2,3205	17,1	-38,9
2,321	19,4	-37,6
2,3215	21,2	-37,0
2,322	21,8	-37,0
2,3225	20,6	-37,6
2,323	16,9	-39,0
2,3235	10,9	-41,1
2,324	3,6	-43,4
2,3245	-3,0	-45,2
2,325	-7,3	-45,8
2,3255	-9,4	-45,5
2,326	-9,4	-44,7
2,3265	-7,7	-43,5
2,327	-4,5	-42,1
2,3275	-0,8	-41,0
2,328	1,9	-40,7
2,3285	2,9	-41,4
2,329	3,0	-42,6
2,3295	3,2	-43,4
2,33	3,8	-43,4
2,3305	3,8	-42,7
2,331	3,2	-41,2
2,3315	2,5	-39,1
2,332	2,8	-36,5
2,3325	3,9	-33,9
2,333	4,5	-32,3
2,3335	4,1	-32,0
2,334	3,6	-33,3
2,3345	4,2	-35,5
2,335	6,3	-38,0
2,3355	9,1	-40,1
2,336	12,3	-41,1
2,3365	16,3	-40,4
2,337	21,0	-38,8
2,3375	25,5	-37,2
2,338	28,6	-36,4
2,3385	29,2	-36,5
2,339	26,7	-37,1
2,3395	20,7	-38,1
2,34	11,8	-39,6
2,3405	1,9	-41,5
2,341	-5,8	-43,2
2,3415	-9,2	-43,8
2,342	-8,2	-42,8
2,3425	-4,7	-40,7
2,343	-0,3	-38,0
2,3435	3,8	-35,2
2,344	7,3	-33,0
2,3445	8,9	-31,8
2,345	8,3	-31,9
2,3455	6,0	-32,7
2,346	2,9	-33,5
2,3465	0,1	-34,2
2,347	-1,8	-34,7
2,3475	-2,0	-34,9
2,348	-0,0	-34,4
2,3485	3,6	-32,9
2,349	7,0	-31,0
2,3495	7,9	-29,7
2,35	4,5	-29,7
2,3505	-2,3	-31,3
2,351	-10,3	-33,8
2,3515	-17,8	-36,5
2,352	-23,9	-39,0
2,3525	-27,8	-40,7
2,353	-28,4	-41,0
2,3535	-25,6	-40,0
2,354	-20,6	-38,2
2,3545	-14,8	-36,7
2,355	-9,1	-35,8
2,3555	-3,3	-35,9
2,356	1,6	-37,0
2,3565	4,6	-39,1
2,357	4,9	-41,8
2,3575	3,9	-44,4
2,358	3,9	-46,0
2,3585	6,4	-46,3
2,359	10,9	-45,3
2,3595	16,1	-43,6
2,36	20,9	-41,4
2,3605	25,0	-39,2
2,361	27,8	-37,7
2,3615	29,3	-37,7
2,362	30,5	-39,1
2,3625	32,8	-40,7
2,363	37,1	-41,7
2,3635	42,3	-41,6
2,364	47,1	-40,8
2,3645	51,2	-39,4
2,365	54,4	-37,5
2,3655	56,9	-35,3
2,366	58,0	-33,3
2,3665	56,3	-32,1
2,367	51,7	-31,9
2,3675	44,8	-32,5
2,368	37,0	-33,5
2,3685	29,3	-34,5
2,369	22,2	-35,0
2,3695	17,0	-34,6
2,37	14,3	-33,2
2,3705	13,7	-31,5
2,371	13,7	-30,6
2,3715	13,3	-30,7
2,372	12,1	-31,2
2,3725	10,0	-32,1
2,373	6,5	-33,8
2,3735	1,4	-36,9
2,374	-4,6	-40,8
2,3745	-9,8	-44,5
2,375	-12,8	-46,8
2,3755	-13,6	-47,6
2,376	-12,7	-47,2
2,3765	-10,9	-46,2
2,377	-8,5	-45,3
2,3775	-6,0	-45,1
2,378	-5,2	-46,3
2,3785	-6,8	-48,6
2,379	-10,6	-51,3
2,3795	-15,0	-53,4
2,38	-18,8	-54,4
2,3805	-21,5	-54,1
2,381	-22,4	-52,6
2,3815	-21,2	-49,9
2,382	-18,3	-46,7
2,3825	-15,1	-43,7
2,383	-13,6	-41,6
2,3835	-14,6	-40,9
2,384	-17,6	-41,7
2,3845	-22,2	-43,4
2,385	-27,5	-45,4
2,3855	-32,7	-47,1
2,386	-35,9	-47,8
2,3865	-36,3	-47,5
2,387	-34,8	-46,4
2,3875	-33,9	-45,3
2,388	-35,3	-45,1
2,3885	-39,1	-45,8
2,389	-44,4	-47,3
2,3895	-50,7	-49,3
2,39	-57,4	-51,6
2,3905	-63,4	-53,8
2,391	-66,7	-55,0
2,3915	-65,3	-54,8
2,392	-59,1	-53,4
2,3925	-49,6	-51,0
2,393	-38,8	-48,3
2,3935	-28,3	-45,5
2,394	-18,6	-43,1
2,3945	-9,9	-42,2
2,395	-2,6	-43,2
2,3955	3,7	-45,7
2,396	9,2	-48,6
2,3965	14,1	-51,3
2,397	18,2	-53,3
2,3975	21,2	-54,5
2,398	23,9	-54,7
2,3985	26,5	-53,7
2,399	28,5	-52,0
2,3995	28,3	-50,8
2,4	24,7	-50,9
2,4005	17,5	-52,1
2,401	7,9	-53,9
2,4015	-2,8	-55,8
2,402	-13,4	-57,3
2,4025	-22,4	-57,7
2,403	-28,1	-56,6
2,4035	-29,8	-54,4
2,404	-29,0	-52,2
2,4045	-27,7	-50,6
2,405	-27,7	-50,0
2,4055	-29,1	-49,9
2,406	-31,5	-50,5
2,4065	-35,0	-52,2
2,407	-39,5	-54,9
2,4075	-44,3	-57,8
2,408	-47,9	-59,6
2,4085	-49,5	-59,6
2,409	-49,4	-58,2
2,4095	-48,5	-56,2
2,41	-47,4	-54,2
2,4105	-46,3	-52,4
2,411	-45,7	-51,4
2,4115	-46,4	-51,6
2,412	-47,9	-52,6
2,4125	-48,7	-53,9
2,413	-47,4	-54,9
2,4135	-44,1	-55,3
2,414	-40,0	-54,9
2,4145	-35,5	-53,7
2,415	-29,8	-51,5
2,4155	-22,2	-48,9
2,416	-13,3	-46,8
2,4165	-5,4	-46,1
2,417	-0,5	-46,9
2,4175	0,0	-48,6
2,418	-3,5	-50,4
2,4185	-9,8	-52,2
2,419	-16,5	-53,6
2,4195	-21,4	-54,5
2,42	-23,3	-55,0
2,4205	-23,2	-55,4
2,421	-22,8	-56,4
2,4215	-23,3	-57,8
2,422	-24,5	-59,4
2,4225	-25,9	-61,0
2,423	-27,3	-62,8
2,4235	-28,8	-64,8
2,424	-30,0	-66,6
2,4245	-29,5	-67,6
2,425	-26,4	-67,4
2,4255	-20,5	-66,0
2,426	-12,6	-63,8
2,4265	-3,8	-61,1
2,427	5,1	-58,4
2,4275	12,7	-56,4
2,428	17,4	-55,7
2,4285	18,5	-56,2
2,429	16,8	-57,5
2,4295	14,1	-58,8
2,43	11,6	-59,4
2,4305	9,7	-59,5
2,431	9,2	-58,8
2,4315	10,3	-56,9
2,432	12,6	-54,2
2,4325	14,8	-51,3
2,433	15,0	-49,2
2,4335	12,8	-48,5
2,434	9,5	-48,9
2,4345	6,4	-50,2
2,435	4,3	-51,6
2,4355	2,9	-53,1
2,436	2,7	-54,0
2,4365	4,4	-54,1
2,437	7,5	-53,4
2,4375	10,7	-52,5
2,438	12,5	-52,0
2,4385	12,6	-52,3
2,439	10,8	-53,4
2,4395	6,2	-55,3
2,44	-1,2	-57,4
2,4405	-10,4	-59,3
2,441	-19,2	-60,3
2,4415	-25,3	-60,0
2,442	-27,6	-58,8
2,4425	-26,5	-57,4
2,443	-23,0	-56,2
2,4435	-18,2	-55,0
2,444	-13,3	-54,0
2,4445	-10,1	-53,3
2,445	-9,6	-53,1
2,4455	-11,8	-53,3
2,446	-15,1	-53,4
2,4465	-17,7	-53,3
2,447	-18,4	-53,3
2,4475	-16,8	-53,3
2,448	-12,7	-52,9
2,4485	-7,2	-51,7
2,449	-2,2	-50,3
2,4495	-0,3	-49,8
2,45	-3,4	-50,6
2,4505	-11,0	-52,6
2,451	-20,8	-55,1
2,4515	-30,2	-57,5
2,452	-37,3	-59,7
2,4525	-41,0	-61,0
2,453	-40,2	-60,7
2,4535	-35,0	-58,7
2,454	-27,3	-55,6
2,4545	-19,3	-52,4
2,455	-12,4	-49,9
2,4555	-7,1	-48,5
2,456	-4,0	-48,4
2,4565	-3,5	-50,0
2,457	-5,0	-52,7
2,4575	-7,3	-55,4
2,458	-8,8	-56,8
2,4585	-8,8	-56,3
2,459	-7,9	-54,3
2,4595	-6,6	-51,3
2,46	-4,7	-48,3
2,4605	-2,5	-45,6
2,461	-1,2	-44,0
2,4615	-2,6	-44,1
2,462	-7,5	-45,3
2,4625	-14,9	-47,1
2,463	-22,6	-48,4
2,4635	-28,4	-49,0
2,464	-31,3	-48,9
2,4645	-30,2	-48,1
2,465	-25,0	-46,9
2,4655	-16,5	-45,7
2,466	-6,9	-45,5
2,4665	0,7	-46,9
2,467	4,6	-49,5
2,4675	4,7	-52,5
2,468	2,2	-55,3
2,4685	-1,2	-57,7
2,469	-3,5	-59,3
2,4695	-3,3	-59,4
2,47	-0,2	-57,7
2,4705	4,7	-54,7
2,471	9,5	-51,8
2,4715	12,7	-49,8
2,472	13,7	-48,9
2,4725	11,5	-48,9
2,473	4,8	-49,5
2,4735	-6,6	-50,9
2,474	-20,7	-52,7
2,4745	-33,9	-54,2
2,475	-43,3	-54,7
2,4755	-47,9	-54,1
2,476	-48,2	-52,9
2,4765	-45,3	-51,3
2,477	-40,4	-49,5
2,4775	-35,1	-47,8
2,478	-30,9	-47,0
2,4785	-28,0	-47,8
2,479	-25,3	-49,7
2,4795	-21,5	-51,8
2,48	-16,4	-53,1
2,4805	-10,4	-53,3
2,481	-4,1	-52,4
2,4815	2,7	-50,9
2,482	9,8	-49,3
2,4825	16,1	-48,3
2,483	20,3	-48,4
2,4835	21,8	-50,0
2,484	21,1	-52,3
2,4845	19,4	-54,8
2,485	17,3	-56,8
2,4855	14,6	-57,9
2,486	11,4	-57,4
2,4865	8,3	-55,2
2,487	5,7	-52,0
2,4875	3,0	-48,9
2,488	-0,3	-46,9
2,4885	-4,8	-46,4
2,489	-10,7	-47,3
2,4895	-18,5	-49,5
2,49	-27,9	-52,4
2,4905	-37,8	-55,3
2,491	-46,0	-57,1
2,4915	-50,4	-57,3
2,492	-50,4	-55,9
2,4925	-46,6	-53,9
2,493	-40,1	-51,8
2,4935	-31,6	-49,8
2,494	-22,5	-48,3
2,4945	-15,1	-47,8
2,495	-11,5	-48,2
2,4955	-12,4	-49,2
2,496	-16,5	-50,1
2,4965	-21,8	-50,8
2,497	-26,9	-51,2
2,4975	-30,5	-51,3
2,498	-31,7	-51,0
2,4985	-30,7	-50,4
2,499	-28,5	-49,8
2,4995	-27,2	-50,1
2,5	-27,6	-51,3
2,5005	-29,3	-53,3
2,501	-31,0	-55,4
2,5015	-32,2	-57,4
2,502	-32,3	-59,3
2,5025	-30,8	-60,6
2,503	-26,9	-60,5
2,5035	-20,8	-59,2
2,504	-14,1	-57,0
2,5045	-8,5	-54,8
2,505	-4,9	-53,1
2,5055	-3,6	-52,3
2,506	-5,1	-52,6
2,5065	-9,4	-54,3
2,507	-15,9	-56,5
2,5075	-22,8	-58,4
2,508	-27,8	-58,7
2,5085	-29,8	-56,8
2,509	-28,8	-53,7
2,5095	-25,1	-50,3
2,51	-19,8	-47,1
2,5105	-13,6	-44,8
2,511	-8,3	-43,4
2,5115	-5,6	-43,4
2,512	-6,0	-44,2
2,5125	-8,5	-45,3
2,513	-11,5	-46,2
2,5135	-13,7	-46,8
2,514	-14,2	-47,2
2,5145	-12,9	-47,3
2,515	-10,3	-46,9
2,5155	-7,2	-46,1
2,516	-5,1	-45,3
2,5165	-5,3	-45,3
2,517	-8,0	-46,4
2,5175	-12,5	-48,1
2,518	-17,9	-49,9
2,5185	-23,8	-51,8
2,519	-29,6	-53,2
2,5195	-34,3	-53,3
2,52	-36,8	-52,2
2,5205	-37,9	-50,4
2,521	-39,8	-48,8
2,5215	-43,9	-48,0
2,522	-49,9	-47,9
2,5225	-57,0	-48,5
2,523	-64,7	-50,2
2,5235	-72,8	-53,1
2,524	-80,3	-56,6
2,5245	-84,8	-59,1
2,525	-84,8	-59,9
2,5255	-79,8	-59,1
2,526	-70,8	-57,5
2,5265	-59,2	-55,6
2,527	-46,8	-53,4
2,5275	-35,7	-51,3
2,528	-28,4	-50,3
2,5285	-25,2	-50,6
2,529	-24,4	-51,5
2,5295	-23,4	-52,4
2,53	-20,5	-52,8
2,5305	-15,8	-52,6
2,531	-9,8	-51,4
2,5315	-3,3	-49,3
2,532	3,1	-46,4
2,5325	8,3	-44,0
2,533	11,4	-42,9
2,5335	11,8	-43,0
2,534	10,0	-43,7
2,5345	6,7	-44,0
2,535	2,5	-44,0
2,5355	-1,8	-44,0
2,536	-4,9	-43,8
2,5365	-5,4	-43,0
2,537	-3,3	-41,7
2,5375	0,5	-40,5
2,538	4,7	-39,5
2,5385	8,4	-38,6
2,539	11,1	-38,3
2,5395	11,8	-39,2
2,54	9,9	-41,5
2,5405	5,7	-44,6
2,541	0,9	-47,3
2,5415	-2,2	-48,6
2,542	-2,7	-48,5
2,5425	-1,1	-47,7
2,543	1,4	-46,6
2,5435	4,3	-45,5
2,544	6,8	-44,4
2,5445	8,0	-43,9
2,545	7,0	-44,1
2,5455	4,1	-44,5
2,546	0,6	-44,6
2,5465	-2,4	-44,0
2,547	-4,4	-43,3
2,5475	-5,1	-42,3
2,548	-4,3	-40,4
2,5485	-2,2	-37,7
2,549	0,3	-34,8
2,5495	1,3	-32,9
2,55	-0,6	-32,5
2,5505	-5,2	-33,8
2,551	-11,2	-36,3
2,5515	-17,2	-39,6
2,552	-22,3	-43,2
2,5525	-25,4	-46,0
2,553	-25,4	-47,1
2,5535	-22,2	-46,3
2,554	-17,1	-44,7
2,5545	-12,2	-43,3
2,555	-8,7	-42,8
2,5555	-7,4	-42,9
2,556	-9,3	-43,5
2,5565	-15,1	-44,7
2,557	-24,7	-46,8
2,5575	-36,2	-49,5
2,558	-46,9	-52,0
2,5585	-54,0	-53,7
2,559	-56,5	-54,3
2,5595	-54,4	-54,3
2,56	-48,6	-53,7
2,5605	-40,7	-53,2
2,561	-33,7	-53,3
2,5615	-30,0	-54,5
2,562	-30,4	-56,4
2,5625	-33,5	-58,2
2,563	-37,4	-59,5
2,5635	-41,5	-60,2
2,564	-45,3	-60,3
2,5645	-48,0	-59,6
2,565	-48,7	-57,8
2,5655	-47,0	-55,3
2,566	-44,0	-53,0
2,5665	-41,6	-52,0
2,567	-40,9	-52,4
2,5675	-42,1	-53,5
2,568	-45,1	-54,9
2,5685	-49,7	-56,4
2,569	-54,8	-57,4
2,5695	-57,9	-57,2
2,57	-57,1	-55,5
2,5705	-52,6	-52,9
2,571	-46,1	-50,4
2,5715	-39,8	-48,7
2,572	-34,5	-48,1
2,5725	-30,5	-48,7
2,573	-27,9	-50,5
2,5735	-26,2	-53,4
2,574	-24,7	-56,3
2,5745	-22,2	-58,1
2,575	-18,3	-58,4
2,5755	-13,3	-57,7
2,576	-7,9	-56,5
2,5765	-3,0	-54,8
2,577	0,9	-52,7
2,5775	2,9	-50,7
2,578	2,2	-49,5
2,5785	-1,1	-49,6
2,579	-5,0	-50,5
2,5795	-7,3	-51,3
2,58	-6,9	-51,9
2,5805	-3,8	-52,1
2,581	1,3	-51,8
2,5815	7,8	-50,8
2,582	14,7	-49,4
2,5825	20,2	-48,4
2,583	22,5	-48,7
2,5835	20,6	-50,3
2,584	15,0	-52,3
2,5845	7,1	-53,8
2,585	-1,8	-54,4
2,5855	-10,1	-54,0
2,586	-16,2	-52,7
2,5865	-18,4	-50,6
2,587	-16,5	-48,3
2,5875	-11,8	-46,6
2,588	-6,1	-45,8
2,5885	-0,9	-46,0
2,589	2,8	-47,1
2,5895	4,3	-49,3
2,59	3,3	-52,8
2,5905	0,7	-57,1
2,591	-1,7	-61,0
2,5915	-1,6	-63,4
2,592	1,2	-63,9
2,5925	5,9	-62,7
2,593	11,5	-60,3
2,5935	17,0	-57,1
2,594	20,7	-54,0
2,5945	20,9	-51,9
2,595	17,4	-51,5
2,5955	12,1	-52,3
2,596	7,6	-53,4
2,5965	5,4	-54,3
2,597	5,3	-54,9
2,5975	6,5	-55,1
2,598	8,6	-54,7
2,5985	11,5	-53,6
2,599	14,9	-52,0
2,5995	18,0	-50,8
2,6	20,3	-50,4
2,6005	21,7	-50,9
2,601	22,4	-52,0
2,6015	22,2	-53,6
2,602	20,4	-55,3
2,6025	17,7	-56,7
2,603	15,5	-57,2
2,6035	15,0	-56,6
2,604	15,8	-55,4
2,6045	17,0	-54,2
2,605	17,8	-53,2
2,6055	17,7	-52,5
2,606	16,0	-52,6
2,6065	12,2	-54,0
2,607	6,6	-56,5
2,6075	0,8	-59,2
2,608	-2,9	-60,9
2,6085	-3,3	-60,9
2,609	-1,1	-59,3
2,6095	2,4	-56,5
2,61	6,0	-52,8
2,6105	8,8	-49,0
2,611	9,9	-46,1
2,6115	8,0	-44,8
2,612	3,7	-44,9
2,6125	-1,2	-45,4
2,613	-4,5	-45,7
2,6135	-5,5	-45,3
2,614	-4,5	-44,3
2,6145	-1,2	-42,7
2,615	4,4	-40,8
2,6155	11,5	-39,1
2,616	17,6	-38,5
2,6165	20,8	-39,3
2,617	20,8	-41,2
2,6175	18,3	-43,7
2,618	14,4	-46,2
2,6185	10,0	-48,5
2,619	6,1	-50,1
2,6195	4,2	-50,4
2,62	4,9	-49,4
2,6205	7,4	-47,8
2,621	10,1	-46,3
2,6215	11,9	-45,5
2,622	12,5	-45,3
2,6225	11,0	-45,6
2,623	6,8	-46,9
2,6235	-0,5	-49,2
2,624	-9,6	-51,9
2,6245	-18,3	-53,8
2,625	-24,4	-54,1
2,6255	-27,3	-52,8
2,626	-27,4	-50,8
2,6265	-25,4	-48,5
2,627	-21,7	-46,7
2,6275	-17,1	-45,9
2,628	-13,1	-46,8
2,6285	-9,8	-49,0
2,629	-6,9	-51,3
2,6295	-3,7	-52,8
2,63	0,2	-53,3
2,6305	4,5	-53,2
2,631	9,6	-52,7
2,6315	15,6	-51,8
2,632	21,8	-50,7
2,6325	26,6	-50,0
2,633	28,3	-50,3
2,6335	25,8	-51,7
2,634	19,0	-54,1
2,6345	9,0	-57,1
2,635	-2,7	-60,1
2,6355	-14,1	-62,1
2,636	-23,1	-62,6
2,6365	-27,9	-61,4
2,637	-27,9	-59,1
2,6375	-23,8	-56,5
2,638	-17,3	-54,6
2,6385	-10,2	-53,7
2,639	-4,5	-54,1
2,6395	-2,2	-55,7
2,64	-4,0	-58,2
2,6405	-9,3	-60,7
2,641	-15,6	-62,0
2,6415	-20,2	-61,2
2,642	-22,9	-58,5
2,6425	-24,8	-54,4
2,643	-26,8	-49,8
2,6435	-28,8	-45,2
2,644	-30,3	-41,5
2,6445	-32,3	-39,4
2,645	-35,3	-39,1
2,6455	-38,0	-40,1
2,646	-38,7	-41,6
2,6465	-36,4	-42,9
2,647	-32,3	-44,2
2,6475	-27,2	-44,9
2,648	-21,3	-44,8
2,6485	-14,5	-43,4
2,649	-8,0	-41,5
2,6495	-3,4	-40,5
2,65	-1,8	-41,1
2,6505	-2,4	-43,4
2,651	-4,3	-46,7
2,6515	-6,6	-50,2
2,652	-9,2	-53,1
2,6525	-11,5	-54,8
2,653	-12,7	-54,6
2,6535	-12,5	-53,3
2,654	-11,8	-51,6
2,6545	-11,4	-50,3
2,655	-11,3	-49,9
2,6555	-10,6	-50,3
2,656	-9,7	-51,7
2,6565	-9,6	-53,7
2,657	-10,8	-56,1
2,6575	-12,4	-58,3
2,658	-12,5	-59,1
2,6585	-10,0	-58,5
2,659	-4,8	-56,7
2,6595	1,7	-54,2
2,66	8,0	-51,3
2,6605	12,7	-48,1
2,661	14,5	-45,6
2,6615	12,5	-44,8
2,662	7,7	-45,5
2,6625	2,0	-47,1
2,663	-2,9	-48,4
2,6635	-6,5	-49,3
2,664	-8,3	-49,5
2,6645	-7,7	-48,8
2,665	-4,1	-47,2
2,6655	1,4	-45,2
2,666	6,1	-43,9
2,6665	7,5	-43,9
2,667	5,0	-45,3
2,6675	-0,5	-47,3
2,668	-7,6	-49,6
2,6685	-15,1	-51,5
2,669	-21,6	-52,6
2,6695	-25,2	-52,4
2,67	-24,9	-51,0
2,6705	-21,5	-49,3
2,671	-17,0	-48,0
2,6715	-13,2	-47,7
2,672	-11,2	-48,1
2,6725	-11,9	-48,8
2,673	-15,9	-49,9
2,6735	-22,8	-51,5
2,674	-30,6	-53,5
2,6745	-37,1	-55,2
2,675	-41,3	-56,0
2,6755	-44,1	-55,5
2,676	-45,8	-53,9
2,6765	-46,3	-51,7
2,677	-44,9	-49,6
2,6775	-42,7	-48,3
2,678	-41,1	-48,3
2,6785	-40,9	-49,3
2,679	-41,0	-50,4
2,6795	-39,5	-50,7
2,68	-35,2	-49,9
2,6805	-27,8	-48,3
2,681	-17,6	-46,0
2,6815	-5,3	-43,4
2,682	7,7	-40,8
2,6825	19,3	-39,1
2,683	26,8	-38,5
2,6835	29,2	-39,1
2,684	27,2	-40,4
2,6845	22,7	-42,0
2,685	17,4	-43,6
2,6855	12,7	-45,1
2,686	9,8	-46,0
2,6865	9,6	-46,0
2,687	11,8	-45,3
2,6875	15,1	-44,4
2,688	17,9	-43,7
2,6885	19,6	-43,5
2,689	20,3	-44,0
2,6895	20,0	-45,4
2,69	19,1	-47,8
2,6905	17,6	-50,5
2,691	16,6	-52,8
2,6915	16,9	-53,8
2,692	18,4	-53,6
2,6925	20,5	-52,6
2,693	22,4	-51,3
2,6935	23,6	-49,8
2,694	23,4	-48,6
2,6945	21,0	-48,3
2,695	15,6	-49,3
2,6955	8,3	-50,8
2,696	1,0	-52,1
2,6965	-4,7	-52,5
2,697	-8,3	-52,2
2,6975	-9,7	-51,4
2,698	-8,5	-49,9
2,6985	-4,6	-47,6
2,699	0,7	-44,7
2,6995	4,5	-42,1
2,7	5,0	-40,3
2,7005	2,5	-39,6
2,701	-1,5	-40,4
2,7015	-5,3	-42,5
2,702	-8,1	-45,2
2,7025	-8,9	-47,6
2,703	-6,6	-48,5
2,7035	-1,6	-47,8
2,704	4,6	-46,3
2,7045	9,8	-44,6
2,705	12,9	-43,3
2,7055	13,7	-42,3
2,706	12,1	-42,1
2,7065	8,2	-43,0
2,707	2,6	-45,0
2,7075	-3,0	-47,3
2,708	-6,6	-48,6
2,7085	-6,9	-48,7
2,709	-4,2	-47,6
2,7095	-0,1	-45,9
2,71	3,9	-43,8
2,7105	6,0	-41,9
2,711	5,1	-41,0
2,7115	1,2	-41,6
2,712	-4,2	-43,5
2,7125	-9,0	-45,7
2,713	-11,9	-47,4
2,7135	-13,3	-48,4
2,714	-13,5	-48,7
2,7145	-12,2	-48,0
2,715	-8,8	-46,6
2,7155	-3,3	-44,6
2,716	2,7	-43,0
2,7165	7,6	-42,7
2,717	10,8	-43,6
2,7175	12,8	-45,2
2,718	13,9	-47,1
2,7185	14,0	-49,0
2,719	13,5	-50,6
2,7195	13,8	-51,1
2,72	15,5	-50,1
2,7205	18,0	-48,3
2,721	19,6	-46,3
2,7215	19,1	-44,6
2,722	16,5	-43,3
2,7225	12,3	-42,8
2,723	6,8	-43,2
2,7235	0,4	-44,5
2,724	-5,5	-46,1
2,7245	-9,1	-47,0
2,725	-8,8	-46,5
2,7255	-4,8	-44,6
2,726	1,3	-41,8
2,7265	7,6	-38,9
2,727	12,7	-36,8
2,7275	15,2	-36,3
2,728	13,4	-37,7
2,7285	7,3	-40,5
2,729	-1,8	-43,5
2,7295	-11,7	-45,8
2,73	-20,8	-46,9
2,7305	-27,5	-47,1
2,731	-30,7	-46,5
2,7315	-29,8	-45,3
2,732	-25,9	-43,6
2,7325	-21,2	-42,1
2,733	-18,3	-41,3
2,7335	-18,4	-41,6
2,734	-21,3	-42,3
2,7345	-25,8	-43,3
2,735	-31,2	-44,2
2,7355	-36,3	-44,9
2,736	-39,5	-45,0
2,7365	-39,3	-44,3
2,737	-35,8	-43,1
2,7375	-31,0	-42,4
2,738	-26,9	-42,5
2,7385	-24,8	-43,5
2,739	-25,1	-45,0
2,7395	-27,7	-47,3
2,74	-31,5	-50,1
2,7405	-35,1	-53,1
2,741	-36,6	-55,3
2,7415	-34,6	-55,8
2,742	-28,8	-54,6
2,7425	-19,9	-51,8
2,743	-9,2	-48,3
2,7435	2,3	-45,0
2,744	13,0	-42,6
2,7445	20,8	-41,7
2,745	24,7	-42,1
2,7455	24,7	-43,1
2,746	22,3	-44,0
2,7465	19,2	-44,6
2,747	16,5	-45,1
2,7475	15,1	-45,3
2,748	15,4	-44,8
2,7485	17,0	-43,6
2,749	18,7	-42,0
2,7495	18,5	-41,1
2,75	15,0	-41,2
2,7505	8,0	-42,4
2,751	-1,8	-44,2
2,7515	-12,6	-46,3
2,752	-22,7	-48,4
2,7525	-30,1	-49,8
2,753	-33,2	-49,7
2,7535	-32,2	-48,3
2,754	-28,9	-46,3
2,7545	-25,2	-44,7
2,755	-21,8	-43,7
2,7555	-18,7	-43,1
2,756	-16,5	-42,8
2,7565	-16,1	-43,3
2,757	-17,5	-44,9
2,7575	-19,4	-46,8
2,758	-19,5	-48,1
2,7585	-16,4	-48,1
2,759	-11,0	-47,1
2,7595	-5,3	-45,8
2,76	-1,3	-44,7
2,7605	-0,5	-44,5
2,761	-3,3	-45,1
2,7615	-9,0	-46,3
2,762	-15,6	-47,4
2,7625	-21,1	-48,1
2,763	-24,9	-48,1
2,7635	-27,4	-47,7
2,764	-28,6	-46,9
2,7645	-27,6	-45,5
2,765	-23,2	-43,5
2,7655	-15,7	-41,3
2,766	-7,0	-39,7
2,7665	0,4	-39,4
2,767	5,1	-40,4
2,7675	7,0	-42,0
2,768	6,8	-43,6
2,7685	4,7	-45,3
2,769	1,8	-46,8
2,7695	-0,4	-47,7
2,77	-0,8	-48,0
2,7705	0,0	-47,6
2,771	0,7	-47,2
2,7715	-0,1	-47,0
2,772	-2,9	-47,3
2,7725	-8,3	-48,2
2,773	-16,4	-50,0
2,7735	-26,6	-52,5
2,774	-36,8	-54,8
2,7745	-44,3	-55,5
2,775	-47,2	-54,2
2,7755	-45,6	-51,5
2,776	-40,9	-48,5
2,7765	-34,8	-46,0
2,777	-28,3	-44,1
2,7775	-23,0	-42,8
2,778	-20,1	-42,3
2,7785	-19,9	-42,6
2,779	-21,2	-43,3
2,7795	-22,0	-43,8
2,78	-21,1	-44,2
2,7805	-18,8	-44,4
2,781	-15,3	-44,1
2,7815	-10,5	-43,1
2,782	-4,7	-41,7
2,7825	0,9	-40,5
2,783	4,6	-40,2
2,7835	6,0	-40,9
2,784	5,3	-42,4
2,7845	3,3	-44,1
2,785	0,4	-46,0
2,7855	-1,8	-47,8
2,786	-1,8	-48,7
2,7865	1,4	-48,4
2,787	7,0	-46,9
2,7875	13,2	-45,0
2,788	18,4	-43,6
2,7885	22,0	-42,7
2,789	23,6	-42,3
2,7895	22,8	-42,7
2,79	19,9	-44,3
2,7905	15,8	-46,9
2,791	12,2	-49,4
2,7915	9,8	-50,7
2,792	8,1	-50,2
2,7925	6,3	-48,1
2,793	4,2	-45,2
2,7935	2,1	-42,6
2,794	-0,1	-41,2
2,7945	-3,8	-41,7
2,795	-9,7	-44,1
2,7955	-16,6	-47,0
2,796	-21,8	-49,4
2,7965	-23,2	-50,8
2,797	-20,2	-51,5
2,7975	-13,4	-51,5
2,798	-4,1	-50,7
2,7985	6,4	-49,1
2,799	16,2	-47,3
2,7995	22,5	-46,4
2,8	23,3	-47,0
2,8005	18,0	-48,9
2,801	8,0	-51,5
2,8015	-4,5	-54,1
2,802	-17,0	-55,8
2,8025	-26,5	-56,1
2,803	-31,1	-54,8
2,8035	-30,5	-52,4
2,804	-25,9	-49,8
2,8045	-19,5	-47,9
2,805	-12,9	-46,9
2,8055	-7,9	-46,8
2,806	-6,0	-47,8
2,8065	-7,1	-49,3
2,807	-9,5	-51,2
2,8075	-10,7	-52,7
2,808	-9,2	-53,3
2,8085	-5,0	-52,9
2,809	0,2	-51,6
2,8095	4,6	-50,1
2,81	7,1	-48,8
2,8105	7,7	-48,5
2,811	6,1	-49,7
2,8115	2,3	-52,1
2,812	-3,1	-54,8
2,8125	-8,9	-56,7
2,813	-14,3	-57,4
2,8135	-19,2	-57,6
2,814	-23,1	-57,6
2,8145	-25,1	-57,1
2,815	-24,3	-55,8
2,8155	-20,9	-53,8
2,816	-16,8	-51,9
2,8165	-14,1	-51,2
2,817	-13,3	-52,0
2,8175	-13,6	-54,2
2,818	-14,1	-57,1
2,8185	-13,8	-60,0
2,819	-11,7	-61,9
2,8195	-6,6	-61,9
2,82	1,4	-59,9
2,8205	10,6	-56,8
2,821	19,0	-53,7
2,8215	25,4	-51,0
2,822	29,3	-49,2
2,8225	30,0	-48,4
2,823	26,9	-49,2
2,8235	20,6	-51,5
2,824	13,2	-54,8
2,8245	7,4	-57,6
2,825	4,6	-59,1
2,8255	4,5	-58,9
2,826	5,8	-57,3
2,8265	7,6	-54,6
2,827	9,3	-51,8
2,8275	10,1	-50,0
2,828	9,0	-50,2
2,8285	6,2	-51,9
2,829	2,7	-54,2
2,8295	-0,1	-56,2
2,83	-1,0	-57,0
2,8305	0,7	-56,8
2,831	5,4	-55,4
2,8315	12,6	-53,1
2,832	21,1	-50,4
2,8325	28,9	-48,5
2,833	33,5	-48,1
2,8335	33,7	-49,1
2,834	29,6	-50,7
2,8345	22,4	-52,1
2,835	13,6	-53,1
2,8355	4,9	-53,5
2,836	-1,7	-53,3
2,8365	-4,7	-52,2
2,837	-4,4	-50,4
2,8375	-2,0	-48,5
2,838	1,3	-46,9
2,8385	5,1	-45,7
2,839	8,8	-45,2
2,8395	10,3	-45,7
2,84	8,1	-47,2
2,8405	2,3	-49,4
2,841	-4,5	-51,3
2,8415	-9,3	-52,0
2,842	-11,0	-51,1
2,8425	-9,6	-48,9
2,843	-6,3	-45,7
2,8435	-2,0	-42,0
2,844	2,0	-38,9
2,8445	3,7	-37,6
2,845	2,3	-38,4
2,8455	-0,9	-40,8
2,846	-4,3	-43,1
2,8465	-6,1	-44,3
2,847	-6,0	-44,2
2,8475	-3,6	-42,9
2,848	1,3	-40,6
2,8485	8,4	-37,9
2,849	16,1	-35,4
2,8495	22,0	-33,9
2,85	24,5	-33,7
2,8505	24,0	-34,5
2,851	21,9	-36,0
2,8515	19,1	-37,9
2,852	15,7	-39,5
2,8525	12,7	-39,8
2,853	11,3	-38,7
2,8535	11,3	-36,6
2,854	11,6	-34,8
2,8545	10,9	-34,4
2,855	8,8	-35,3
2,8555	5,4	-37,1
2,856	0,7	-39,7
2,8565	-5,5	-42,7
2,857	-12,6	-45,9
2,8575	-19,3	-48,7
2,858	-23,7	-50,1
2,8585	-24,8	-49,8
2,859	-23,0	-48,1
2,8595	-19,7	-45,6
2,86	-16,3	-42,8
2,8605	-14,2	-40,9
2,861	-15,3	-40,7
2,8615	-19,8	-42,2
2,862	-25,6	-44,5
2,8625	-30,3	-46,2
2,863	-32,2	-46,8
2,8635	-31,3	-46,2
2,864	-28,1	-45,0
2,8645	-22,3	-43,1
2,865	-14,3	-40,7
2,8655	-6,3	-38,3
2,866	-1,8	-36,9
2,8665	-3,0	-37,0
2,867	-9,0	-38,1
2,8675	-16,9	-39,7
2,868	-23,8	-41,6
2,8685	-28,5	-43,6
2,869	-31,2	-44,9
2,8695	-31,8	-44,6
2,87	-30,4	-42,5
2,8705	-28,1	-39,5
2,871	-25,8	-36,8
2,8715	-24,2	-35,3
2,872	-23,4	-35,0
2,8725	-23,7	-35,8
2,873	-25,6	-37,8
2,8735	-28,7	-40,8
2,874	-31,4	-43,9
2,8745	-31,6	-46,1
2,875	-27,9	-46,5
2,8755	-20,6	-45,1
2,876	-11,3	-42,5
2,8765	-1,8	-39,5
2,877	6,6	-36,6
2,8775	12,8	-34,9
2,878	15,7	-35,0
2,8785	15,5	-36,5
2,879	13,6	-38,3
2,8795	11,8	-39,2
2,88	11,4	-39,2
2,8805	12,6	-38,6
2,881	15,4	-37,2
2,8815	19,4	-34,8
2,882	23,9	-31,8
2,8825	27,7	-29,4
2,883	29,5	-28,8
2,8835	29,0	-30,2
2,884	26,3	-33,1
2,8845	22,3	-36,5
2,885	17,6	-40,1
2,8855	13,2	-43,2
2,886	10,6	-44,9
2,8865	10,8	-45,2
2,887	12,9	-44,5
2,8875	15,6	-43,9
2,888	17,9	-44,3
2,8885	19,8	-45,3
2,889	20,6	-46,6
2,8895	19,1	-48,5
2,89	14,6	-51,0
2,8905	8,0	-54,2
2,891	1,9	-56,9
2,8915	-1,3	-58,0
2,892	-1,0	-57,0
2,8925	1,7	-54,8
2,893	5,3	-52,4
2,8935	8,8	-50,6
2,894	10,8	-49,6
2,8945	10,5	-49,4
2,895	7,8	-49,8
2,8955	4,1	-50,4
2,896	1,5	-50,6
2,8965	1,3	-50,2
2,897	3,6	-49,5
2,8975	8,1	-48,4
2,898	14,4	-46,8
2,8985	21,5	-44,9
2,899	28,0	-43,3
2,8995	31,7	-42,8
2,9	31,5	-43,4
2,9005	27,4	-45,0
2,901	20,2	-47,0
2,9015	11,2	-49,1
2,902	1,9	-51,1
2,9025	-5,5	-52,6
2,903	-8,9	-53,3
2,9035	-7,9	-53,5
2,904	-3,8	-53,6
2,9045	1,5	-54,1
2,905	6,4	-54,8
2,9055	9,9	-55,1
2,906	11,0	-55,3
2,9065	8,7	-55,5
2,907	3,5	-56,0
2,9075	-2,4	-56,4
2,908	-6,6	-56,3
2,9085	-8,0	-56,0
2,909	-6,9	-55,8
2,9095	-3,9	-55,7
2,91	0,5	-55,1
2,9105	5,4	-54,2
2,911	8,8	-53,7
2,9115	9,1	-54,3
2,912	6,6	-55,8
2,9125	3,3	-57,5
2,913	1,2	-58,8
2,9135	1,1	-59,4
2,914	3,2	-59,4
2,9145	7,3	-58,6
2,915	13,1	-56,9
2,9155	19,6	-54,9
2,916	24,5	-53,3
2,9165	26,3	-53,1
2,917	24,6	-54,3
2,9175	20,0	-56,6
2,918	13,6	-59,3
2,9185	6,9	-61,8
2,919	1,7	-63,5
2,9195	-0,6	-63,9
2,92	-0,3	-63,0
2,9205	0,7	-61,7
2,921	0,2	-60,7
2,9215	-2,4	-60,3
2,922	-5,8	-60,8
2,9225	-9,7	-62,1
2,923	-14,8	-64,3
2,9235	-21,7	-67,2
2,924	-29,7	-69,6
2,9245	-36,6	-70,8
2,925	-41,1	-70,4
2,9255	-43,2	-68,8
2,926	-43,1	-66,4
2,9265	-41,0	-63,8
2,927	-37,3	-61,2
2,9275	-33,1	-59,3
2,928	-30,1	-58,4
2,9285	-29,0	-58,3
2,929	-29,0	-58,6
2,9295	-28,5	-58,8
2,93	-26,4	-58,8
2,9305	-22,4	-58,7
2,931	-16,2	-57,8
2,9315	-7,8	-55,8
2,932	2,3	-52,7
2,9325	12,1	-49,6
2,933	19,0	-47,6
2,9335	21,8	-47,2
2,934	20,8	-48,4
2,9345	17,3	-50,7
2,935	13,3	-53,7
2,9355	10,6	-56,3
2,936	10,6	-57,8
2,9365	13,6	-57,5
2,937	18,4	-56,3
2,9375	23,5	-55,0
2,938	27,7	-54,0
2,9385	30,7	-53,4
2,939	32,5	-53,5
2,9395	32,8	-54,6
2,94	31,5	-56,5
2,9405	29,0	-58,7
2,941	26,5	-60,4
2,9415	25,0	-60,8
2,942	24,5	-60,1
2,9425	24,6	-58,7
2,943	25,2	-57,3
2,9435	26,3	-56,0
2,944	27,6	-55,2
2,9445	28,6	-55,3
2,945	29,4	-56,5
2,9455	30,6	-58,2
2,946	32,5	-59,6
2,9465	34,4	-60,2
2,947	35,7	-60,3
2,9475	36,1	-59,8
2,948	36,4	-58,6
2,9485	36,8	-56,8
2,949	36,6	-55,2
2,9495	34,1	-54,6
2,95	28,9	-55,3
2,9505	21,7	-57,2
2,951	13,7	-59,4
2,9515	6,4	-61,5
2,952	0,7	-62,9
2,9525	-2,1	-62,9
2,953	-1,3	-61,1
2,9535	2,6	-57,8
2,954	7,4	-54,3
2,9545	11,6	-51,5
2,955	14,8	-50,0
2,9555	17,2	-49,8
2,956	18,3	-50,6
2,9565	17,2	-52,1
2,957	13,9	-53,8
2,9575	9,9	-54,8
2,958	6,9	-54,7
2,9585	6,1	-53,9
2,959	8,1	-52,9
2,9595	12,6	-52,2
2,96	18,8	-51,7
2,9605	25,1	-51,4
2,961	29,9	-51,7
2,9615	32,0	-52,8
2,962	32,2	-54,7
2,9625	31,8	-56,6
2,963	32,1	-58,0
2,9635	33,3	-58,7
2,964	35,3	-58,5
2,9645	38,4	-57,4
2,965	42,8	-55,3
2,9655	48,0	-52,9
2,966	52,7	-51,2
2,9665	55,1	-50,9
2,967	54,9	-52,1
2,9675	52,5	-54,3
2,968	48,7	-57,2
2,9685	44,2	-59,9
2,969	40,0	-61,7
2,9695	37,9	-61,9
2,97	38,2	-60,8
2,9705	40,0	-59,2
2,971	42,0	-57,8
2,9715	43,3	-56,5
2,972	44,0	-55,4
2,9725	43,5	-54,8
2,973	41,3	-55,3
2,9735	37,7	-57,1
2,974	33,9	-59,4
2,9745	32,3	-60,9
2,975	34,0	-60,7
2,9755	38,3	-58,9
2,976	43,8	-56,3
2,9765	49,1	-53,8
2,977	53,0	-52,0
2,9775	54,2	-51,8
2,978	52,0	-53,3
2,9785	46,8	-56,1
2,979	40,3	-59,3
2,9795	34,6	-61,8
2,98	30,5	-63,0
2,9805	28,2	-62,9
2,981	27,8	-61,4
2,9815	29,0	-58,6
2,982	31,4	-54,8
2,9825	33,7	-51,2
2,983	34,5	-48,9
2,9835	33,5	-48,4
2,984	31,0	-49,6
2,9845	27,7	-51,6
2,985	24,1	-53,8
2,9855	20,7	-55,2
2,986	18,3	-55,1
2,9865	17,3	-53,0
2,987	17,4	-50,1
2,9875	18,2	-47,6
2,988	18,8	-46,6
2,9885	18,8	-46,9
2,989	17,4	-48,4
2,9895	14,3	-50,8
2,99	9,6	-53,9
2,9905	4,8	-57,0
2,991	1,7	-59,3
2,9915	1,8	-59,9
2,992	5,1	-58,9
2,9925	10,6	-56,9
2,993	17,0	-54,5
2,9935	23,3	-52,0
2,994	28,5	-50,1
2,9945	31,1	-49,4
2,995	30,7	-50,0
2,9955	28,5	-51,3
2,996	26,2	-52,4
2,9965	24,7	-53,5
2,997	24,5	-54,6
2,9975	26,1	-55,5
2,998	29,8	-55,6
2,9985	34,8	-54,8
2,999	39,2	-53,7
2,9995	41,0	-53,2
3	39,3	-53,6
3,0005	34,8	-54,6
3,001	28,3	-55,6
3,0015	21,1	-56,5
3,002	14,3	-57,1
3,0025	9,2	-56,9
3,003	6,9	-55,4
3,0035	7,3	-52,8
3,004	9,2	-50,3
3,0045	11,4	-48,8
3,005	13,1	-48,3
3,0055	13,6	-48,6
3,006	11,6	-49,8
3,0065	6,9	-52,1
3,007	-0,1	-55,2
3,0075	-7,1	-58,2
3,008	-11,8	-60,0
3,0085	-13,0	-60,1
3,009	-10,8	-58,8
3,0095	-5,7	-56,2
3,01	2,0	-53,1
3,0105	10,7	-50,1
3,011	17,8	-48,5
3,0115	21,5	-48,9
3,012	22,3	-51,0
3,0125	22,1	-53,5
3,013	22,4	-55,6
3,0135	23,3	-57,0
3,014	25,3	-57,8
3,0145	28,9	-57,6
3,015	34,5	-56,5
3,0155	41,0	-54,7
3,016	46,3	-53,0
3,0165	48,1	-52,4
3,017	46,1	-53,2
3,0175	41,0	-54,6
3,018	33,9	-56,0
3,0185	26,1	-56,9
3,019	18,9	-57,1
3,0195	14,0	-56,0
3,02	12,0	-54,0
3,0205	12,1	-51,7
3,021	12,7	-50,2
3,0215	12,8	-50,0
3,022	12,4	-51,0
3,0225	10,7	-53,2
3,023	7,2	-56,3
3,0235	2,0	-60,1
3,024	-3,5	-63,7
3,0245	-7,4	-66,0
3,025	-8,7	-66,5
3,0255	-7,6	-65,2
3,026	-5,3	-62,7
3,0265	-2,8	-59,9
3,027	-1,2	-57,3
3,0275	-1,6	-55,5
3,028	-4,5	-55,1
3,0285	-9,0	-55,7
3,029	-13,8	-56,5
3,0295	-17,1	-56,7
3,03	-18,9	-55,8
3,0305	-20,1	-54,2
3,031	-21,7	-51,9
3,0315	-23,9	-49,5
3,032	-26,4	-47,7
3,0325	-29,0	-47,1
3,033	-32,0	-48,4
3,0335	-35,8	-51,3
3,034	-40,4	-54,6
3,0345	-46,0	-57,7
3,035	-52,3	-59,8
3,0355	-58,3	-60,6
3,036	-61,7	-59,9
3,0365	-60,3	-57,9
3,037	-54,3	-55,6
3,0375	-45,1	-54,1
3,038	-35,1	-53,8
3,0385	-25,4	-54,2
3,039	-17,5	-55,2
3,0395	-12,1	-56,6
3,04	-9,5	-58,4
3,0405	-8,5	-60,0
3,041	-7,4	-60,9
3,0415	-4,8	-60,8
3,042	-0,6	-59,9
3,0425	4,1	-58,4
3,043	8,6	-56,6
3,0435	12,4	-54,4
3,044	14,8	-52,5
3,0445	14,8	-51,7
3,045	12,2	-52,5
3,0455	9,3	-54,5
3,046	8,8	-56,6
3,0465	11,8	-58,3
3,047	17,4	-59,1
3,0475	25,1	-58,9
3,048	34,4	-57,3
3,0485	44,8	-54,3
3,049	54,7	-51,0
3,0495	61,4	-48,8
3,05	63,5	-48,5
3,0505	61,1	-50,3
3,051	55,4	-53,3
3,0515	47,4	-56,6
3,052	37,7	-59,4
3,0525	27,0	-60,8
3,053	16,8	-60,0
3,0535	8,3	-57,5
3,054	2,3	-53,9
3,0545	-1,7	-50,3
3,055	-4,6	-47,8
3,0555	-7,1	-46,7
3,056	-10,0	-47,4
3,0565	-13,7	-49,8
3,057	-17,7	-53,3
3,0575	-20,3	-56,7
3,058	-19,2	-59,1
3,0585	-14,0	-60,2
3,059	-6,1	-60,2
3,0595	2,2	-59,4
3,06	8,8	-58,2
3,0605	12,8	-57,1
3,061	13,7	-56,9
3,0615	11,4	-57,9
3,062	7,4	-59,4
3,0625	3,0	-60,8
3,063	-0,5	-61,5
3,0635	-3,2	-61,9
3,064	-4,7	-61,9
3,0645	-4,9	-61,3
3,065	-3,8	-60,0
3,0655	-1,9	-58,3
3,066	-0,3	-57,3
3,0665	0,9	-57,7
3,067	1,9	-59,1
3,0675	2,6	-60,8
3,068	2,6	-62,0
3,0685	1,7	-62,7
3,069	0,5	-62,6
3,0695	0,6	-61,6
3,07	2,7	-59,7
3,0705	6,0	-57,5
3,071	9,5	-55,6
3,0715	12,6	-54,6
3,072	15,3	-54,4
3,0725	16,9	-54,8
3,073	16,4	-55,9
3,0735	13,4	-57,4
3,074	8,8	-59,0
3,0745	4,8	-59,8
3,075	3,2	-59,4
3,0755	4,3	-57,9
3,076	7,5	-55,8
3,0765	11,6	-53,1
3,077	15,2	-50,5
3,0775	16,7	-48,6
3,078	15,2	-48,2
3,0785	11,3	-49,1
3,079	7,1	-50,6
3,0795	4,5	-51,8
3,08	4,6	-52,8
3,0805	7,6	-53,6
3,081	13,7	-54,1
3,0815	22,4	-54,1
3,082	32,2	-53,4
3,0825	40,2	-52,5
3,083	44,3	-52,2
3,0835	43,9	-53,0
3,084	40,5	-55,0
3,0845	35,4	-57,9
3,085	30,4	-61,4
3,0855	26,7	-64,6
3,086	25,6	-66,6
3,0865	26,8	-66,7
3,087	28,3	-65,3
3,0875	28,0	-63,3
3,088	24,9	-61,1
3,0885	20,0	-59,0
3,089	13,9	-57,6
3,0895	6,9	-57,5
3,09	-0,9	-59,3
3,0905	-8,7	-62,2
3,091	-14,5	-64,9
3,0915	-16,7	-66,2
3,092	-15,2	-65,8
3,0925	-10,9	-64,3
3,093	-5,0	-62,2
3,0935	1,8	-59,8
3,094	8,0	-57,8
3,0945	11,3	-56,9
3,095	10,7	-57,4
3,0955	6,8	-58,6
3,096	1,4	-59,7
3,0965	-3,8	-60,0
3,097	-8,3	-59,8
3,0975	-12,0	-59,4
3,098	-14,2	-58,6
3,0985	-14,5	-57,3
3,099	-13,7	-56,1
3,0995	-13,1	-55,6
3,1	-13,7	-56,3
3,1005	-14,7	-57,9
3,101	-15,6	-59,7
3,1015	-16,3	-61,1
3,102	-16,7	-61,8
3,1025	-16,2	-61,3
3,103	-14,0	-59,5
3,1035	-10,9	-57,3
3,104	-8,6	-55,5
3,1045	-8,3	-54,7
3,105	-9,8	-54,6
3,1055	-12,0	-55,0
3,106	-14,4	-56,1
3,1065	-16,9	-58,1
3,107	-19,0	-60,8
3,1075	-19,3	-63,0
3,108	-16,1	-63,9
3,1085	-9,0	-63,4
3,109	1,1	-62,0
3,1095	12,6	-60,4
3,11	23,4	-58,9
3,1105	31,3	-57,7
3,111	34,0	-57,7
3,1115	30,5	-59,3
3,112	21,9	-61,7
3,1125	10,9	-64,3
3,113	0,4	-66,4
3,1135	-8,0	-68,1
3,114	-13,5	-69,0
3,1145	-15,4	-68,4
3,115	-13,6	-66,0
3,1155	-8,7	-62,7
3,116	-2,8	-60,3
3,1165	2,0	-59,6
3,117	4,2	-60,5
3,1175	3,6	-62,0
3,118	0,8	-63,1
3,1185	-2,8	-63,3
3,119	-5,0	-62,6
3,1195	-3,9	-61,2
3,12	0,5	-59,4
3,1205	6,3	-57,6
3,121	11,0	-56,2
3,1215	13,0	-55,5
3,122	12,0	-55,3
3,1225	8,0	-55,7
3,123	1,3	-56,9
3,1235	-6,8	-58,8
3,124	-14,6	-60,3
3,1245	-20,6	-60,7
3,125	-23,8	-59,7
3,1255	-24,6	-57,6
3,126	-23,3	-55,0
3,1265	-20,5	-52,6
3,127	-16,7	-50,8
3,1275	-13,5	-50,2
3,128	-12,1	-51,0
3,1285	-12,2	-52,7
3,129	-12,8	-54,4
3,1295	-13,0	-55,4
3,13	-12,6	-55,8
3,1305	-11,6	-55,8
3,131	-9,3	-55,3
3,1315	-5,5	-54,3
3,132	-0,6	-53,1
3,1325	3,8	-52,4
3,133	6,3	-52,9
3,1335	6,6	-54,6
3,134	5,3	-56,9
3,1345	3,1	-59,4
3,135	1,0	-62,0
3,1355	-0,3	-64,2
3,136	0,3	-65,1
3,1365	3,0	-64,3
3,137	7,0	-62,5
3,1375	10,8	-60,7
3,138	13,2	-59,7
3,1385	14,3	-59,5
3,139	14,0	-60,3
3,1395	11,9	-62,0
3,14	7,8	-64,3
3,1405	2,5	-66,6
3,141	-2,1	-67,8
3,1415	-4,2	-67,6
3,142	-3,3	-66,5
3,1425	-0,1	-64,7
