Interval=	0,0005 s
ExcelDateTime=	4,5911488457632360e+004	11/09/2025 11:43:22,739436
TimeFormat=	StartOfBlock
DateFormat=	
ChannelTitle=	Biceps	Triceps
Range=	1000,0 µV	1000,0 µV
0	0,1	0,0
0,0005	1,0	0,4
0,001	4,1	1,6
0,0015	9,5	3,8
0,002	15,2	6,1
0,0025	18,4	7,8
0,003	18,3	8,6
0,0035	15,0	8,8
0,004	9,3	8,6
0,0045	1,8	8,2
0,005	-5,5	8,0
0,0055	-10,7	8,7
0,006	-13,2	10,5
0,0065	-14,3	12,7
0,007	-15,4	14,3
0,0075	-16,3	14,8
0,008	-16,8	13,8
0,0085	-17,4	11,5
0,009	-19,2	8,5
0,0095	-22,6	5,8
0,01	-26,7	4,0
0,0105	-29,9	3,6
0,011	-31,2	4,3
0,0115	-30,0	5,6
0,012	-26,4	6,8
0,0125	-20,5	8,1
0,013	-13,7	9,3
0,0135	-8,3	10,5
0,014	-6,1	11,3
0,0145	-7,2	11,6
0,015	-10,1	11,8
0,0155	-13,1	11,9
0,016	-15,5	12,1
0,0165	-16,7	12,5
0,017	-15,8	13,2
0,0175	-12,8	14,4
0,018	-8,5	16,1
0,0185	-5,4	17,8
0,019	-5,1	18,8
0,0195	-7,8	18,8
0,02	-12,4	18,2
0,0205	-18,2	17,1
0,021	-24,4	16,0
0,0215	-29,6	14,9
0,022	-31,6	14,2
0,0225	-29,6	14,3
0,023	-25,0	15,4
0,0235	-20,3	17,1
0,024	-17,1	18,8
0,0245	-15,6	19,8
0,025	-16,3	19,6
0,0255	-19,2	17,9
0,026	-23,9	15,2
0,0265	-28,7	12,5
0,027	-31,5	10,7
0,0275	-31,3	10,1
0,028	-28,0	10,3
0,0285	-22,6	11,0
0,029	-16,0	11,9
0,0295	-9,5	12,8
0,03	-4,9	13,2
0,0305	-3,7	12,6
0,031	-5,6	11,2
0,0315	-8,7	9,8
0,032	-11,6	9,4
0,0325	-13,8	10,0
0,033	-15,2	11,3
0,0335	-14,9	13,2
0,034	-12,4	15,5
0,0345	-8,0	18,0
0,035	-3,2	20,3
0,0355	-0,7	21,8
0,036	-1,7	22,2
0,0365	-6,1	21,8
0,037	-12,9	21,0
0,0375	-21,2	19,8
0,038	-29,4	18,7
0,0385	-35,1	18,0
0,039	-36,5	18,2
0,0395	-33,9	19,1
0,04	-29,4	20,1
0,0405	-25,3	20,7
0,041	-22,3	20,4
0,0415	-21,1	19,3
0,042	-22,5	17,3
0,0425	-26,8	15,0
0,043	-33,1	12,6
0,0435	-39,0	11,0
0,044	-42,3	10,7
0,0445	-42,5	11,5
0,045	-40,4	13,1
0,0455	-36,8	14,7
0,046	-32,0	15,8
0,0465	-27,3	16,0
0,047	-24,8	15,1
0,0475	-25,4	13,3
0,048	-28,6	11,5
0,0485	-32,6	10,3
0,049	-36,6	10,3
0,0495	-39,6	11,0
0,05	-40,7	12,4
0,0505	-38,9	14,0
0,051	-34,3	15,5
0,0515	-28,3	16,7
0,052	-23,7	16,8
0,0525	-22,2	15,8
0,053	-24,0	14,1
0,0535	-27,8	12,3
0,054	-32,3	10,6
0,0545	-36,8	9,1
0,055	-40,4	8,1
0,0555	-42,3	7,9
0,056	-42,5	8,9
0,0565	-41,9	10,7
0,057	-41,7	12,4
0,0575	-42,2	13,4
0,058	-42,9	13,7
0,0585	-44,0	12,8
0,059	-45,2	11,2
0,0595	-46,3	9,2
0,06	-46,0	7,5
0,0605	-42,9	6,9
0,061	-36,8	7,0
0,0615	-28,9	7,6
0,062	-20,6	8,6
0,0625	-13,1	10,2
0,063	-7,5	12,1
0,0635	-5,5	13,8
0,064	-7,5	14,5
0,0645	-12,0	14,1
0,065	-17,1	13,1
0,0655	-21,3	12,3
0,066	-24,1	11,7
0,0665	-24,7	11,5
0,067	-22,5	11,9
0,0675	-17,7	12,6
0,068	-11,0	13,8
0,0685	-4,8	15,3
0,069	-1,4	17,1
0,0695	-1,4	18,8
0,07	-4,4	19,7
0,0705	-9,3	19,4
0,071	-15,5	18,0
0,0715	-21,6	16,1
0,072	-25,3	14,6
0,0725	-25,9	13,8
0,073	-24,6	13,4
0,0735	-23,3	13,0
0,074	-23,6	12,5
0,0745	-25,5	12,2
0,075	-29,8	11,7
0,0755	-37,0	11,1
0,076	-46,5	10,3
0,0765	-56,2	9,7
0,077	-63,3	9,7
0,0775	-66,1	10,2
0,078	-64,7	11,2
0,0785	-60,2	12,2
0,079	-53,8	13,1
0,0795	-46,6	13,7
0,08	-40,5	13,6
0,0805	-37,3	12,6
0,081	-37,2	11,1
0,0815	-38,6	9,5
0,082	-39,8	8,3
0,0825	-40,2	7,7
0,083	-39,1	7,6
0,0835	-35,9	8,2
0,084	-30,0	9,5
0,0845	-21,8	11,4
0,085	-13,2	13,5
0,0855	-6,6	15,0
0,086	-3,3	15,3
0,0865	-3,7	14,5
0,087	-6,9	13,0
0,0875	-12,1	11,2
0,088	-17,9	9,6
0,0885	-22,0	8,8
0,089	-23,1	9,1
0,0895	-21,7	9,9
0,09	-19,7	10,7
0,0905	-18,6	11,1
0,091	-19,0	11,0
0,0915	-21,0	10,5
0,092	-25,0	9,4
0,0925	-31,0	7,7
0,093	-38,1	5,9
0,0935	-44,5	4,8
0,094	-48,4	4,6
0,0945	-49,2	5,2
0,095	-47,3	6,0
0,0955	-43,4	6,8
0,096	-38,0	7,9
0,0965	-32,4	8,7
0,097	-28,9	8,6
0,0975	-28,0	7,7
0,098	-28,5	6,2
0,0985	-28,3	4,9
0,099	-26,7	4,3
0,0995	-24,0	4,2
0,1	-20,3	4,5
0,1005	-15,7	5,0
0,101	-10,3	5,6
0,1015	-5,8	6,0
0,102	-4,0	6,1
0,1025	-6,1	5,7
0,103	-11,6	5,1
0,1035	-19,4	4,9
0,104	-28,6	5,5
0,1045	-38,3	6,8
0,105	-46,2	8,5
0,1055	-50,0	10,5
0,106	-49,1	12,8
0,1065	-45,5	14,7
0,107	-41,8	15,8
0,1075	-39,1	16,0
0,108	-37,7	15,3
0,1085	-38,2	13,9
0,109	-40,9	11,9
0,1095	-45,1	9,6
0,11	-48,7	7,3
0,1105	-49,8	5,7
0,111	-47,5	5,1
0,1115	-42,7	5,2
0,112	-35,9	5,9
0,1125	-28,3	6,6
0,113	-21,2	7,2
0,1135	-16,8	6,9
0,114	-16,1	5,9
0,1145	-18,1	4,5
0,115	-20,8	3,2
0,1155	-22,5	2,2
0,116	-22,7	1,3
0,1165	-20,5	0,8
0,117	-15,8	1,1
0,1175	-8,8	2,3
0,118	-1,3	4,0
0,1185	4,5	5,7
0,119	7,1	6,7
0,1195	6,2	6,9
0,12	2,8	6,4
0,1205	-2,3	5,7
0,121	-8,0	4,9
0,1215	-13,0	4,5
0,122	-15,5	5,0
0,1225	-15,0	6,3
0,123	-12,5	7,8
0,1235	-9,6	8,8
0,124	-7,1	8,9
0,1245	-5,1	8,0
0,125	-4,6	6,3
0,1255	-6,8	4,0
0,126	-11,9	1,6
0,1265	-18,5	-0,4
0,127	-23,9	-1,3
0,1275	-25,9	-0,9
0,128	-23,9	0,2
0,1285	-18,7	1,5
0,129	-11,6	2,6
0,1295	-3,6	3,0
0,13	3,0	2,8
0,1305	6,1	1,5
0,131	5,6	-0,5
0,1315	3,0	-2,6
0,132	0,1	-4,1
0,1325	-2,2	-4,8
0,133	-3,3	-4,8
0,1335	-2,7	-3,8
0,134	0,3	-1,7
0,1345	4,9	1,7
0,135	9,4	5,2
0,1355	11,4	7,9
0,136	10,0	9,0
0,1365	5,9	8,4
0,137	0,0	6,8
0,1375	-7,4	4,4
0,138	-15,5	1,8
0,1385	-22,1	-0,0
0,139	-25,4	-0,3
0,1395	-25,5	1,0
0,14	-23,8	2,9
0,1405	-21,9	4,3
0,141	-20,8	4,8
0,1415	-21,0	4,5
0,142	-23,7	3,5
0,1425	-28,7	2,1
0,143	-35,2	0,4
0,1435	-40,7	-1,1
0,144	-43,0	-2,0
0,1445	-41,3	-1,9
0,145	-35,9	-0,7
0,1455	-28,0	1,7
0,146	-19,3	4,9
0,1465	-12,6	7,8
0,147	-11,0	9,3
0,1475	-15,5	9,2
0,148	-24,0	8,5
0,1485	-32,8	7,9
0,149	-39,1	7,8
0,1495	-41,1	7,7
0,15	-38,3	7,6
0,1505	-30,7	7,7
0,151	-19,5	8,4
0,1515	-7,2	9,4
0,152	2,8	10,2
0,1525	8,4	10,1
0,153	9,6	9,2
0,1535	7,7	7,5
0,154	4,3	5,3
0,1545	0,7	3,2
0,155	-1,5	1,9
0,1555	-0,7	1,9
0,156	3,0	2,9
0,1565	8,0	4,2
0,157	12,4	5,1
0,1575	15,1	5,6
0,158	15,8	5,7
0,1585	13,4	5,4
0,159	7,7	4,4
0,1595	-1,0	2,8
0,16	-10,8	0,8
0,1605	-19,1	-0,8
0,161	-24,3	-1,4
0,1615	-26,0	-1,2
0,162	-24,2	-0,1
0,1625	-19,5	1,5
0,163	-13,1	3,4
0,1635	-7,7	5,1
0,164	-5,5	6,3
0,1645	-5,9	7,3
0,165	-7,4	7,8
0,1655	-8,4	7,7
0,166	-8,6	6,7
0,1665	-7,5	5,4
0,167	-4,8	4,6
0,1675	-0,3	4,8
0,168	4,8	5,6
0,1685	8,3	6,6
0,169	8,6	7,3
0,1695	5,1	7,5
0,17	-1,2	7,4
0,1705	-8,8	7,0
0,171	-16,7	6,1
0,1715	-23,3	4,9
0,172	-26,8	4,0
0,1725	-26,6	3,7
0,173	-23,9	3,8
0,1735	-21,1	4,0
0,174	-19,7	4,3
0,1745	-20,0	4,5
0,175	-22,1	4,4
0,1755	-25,7	3,6
0,176	-30,4	2,0
0,1765	-35,5	0,2
0,177	-39,2	-1,1
0,1775	-40,1	-1,3
0,178	-38,0	-0,7
0,1785	-33,3	0,3
0,179	-26,8	1,4
0,1795	-19,3	2,7
0,18	-12,8	3,4
0,1805	-9,6	3,2
0,181	-9,4	1,9
0,1815	-10,6	0,3
0,182	-11,1	-1,0
0,1825	-10,2	-1,6
0,183	-8,1	-1,3
0,1835	-4,3	-0,2
0,184	1,3	1,7
0,1845	8,4	3,9
0,185	15,3	5,6
0,1855	19,4	6,2
0,186	19,5	5,7
0,1865	15,9	4,3
0,187	9,5	2,6
0,1875	1,2	0,8
0,188	-7,9	-0,3
0,1885	-15,5	-0,2
0,189	-20,2	1,2
0,1895	-22,0	3,2
0,19	-22,4	4,7
0,1905	-23,0	5,0
0,191	-23,9	3,9
0,1915	-25,2	1,5
0,192	-27,5	-1,7
0,1925	-31,3	-4,8
0,193	-36,2	-7,3
0,1935	-40,0	-8,4
0,194	-40,8	-7,6
0,1945	-38,0	-5,4
0,195	-33,1	-2,5
0,1955	-27,6	0,0
0,196	-22,4	1,7
0,1965	-18,5	2,4
0,197	-17,3	1,9
0,1975	-18,8	0,9
0,198	-21,8	0,0
0,1985	-24,5	-0,4
0,199	-25,6	-0,2
0,1995	-25,0	0,3
0,2	-22,2	0,9
0,2005	-16,8	1,7
0,201	-9,3	2,5
0,2015	-1,4	3,2
0,202	4,3	3,4
0,2025	6,0	2,8
0,203	3,4	1,4
0,2035	-3,2	-0,4
0,204	-12,7	-2,4
0,2045	-23,5	-4,2
0,205	-32,9	-5,4
0,2055	-38,2	-5,3
0,206	-38,9	-4,1
0,2065	-36,6	-2,5
0,207	-33,3	-1,4
0,2075	-29,8	-1,4
0,208	-26,6	-2,2
0,2085	-24,5	-3,5
0,209	-24,6	-4,8
0,2095	-27,5	-6,0
0,21	-32,0	-6,6
0,2105	-35,6	-6,6
0,211	-36,5	-6,1
0,2115	-34,1	-5,3
0,212	-28,8	-4,4
0,2125	-21,7	-3,3
0,213	-14,5	-1,8
0,2135	-9,4	-0,6
0,214	-7,8	0,2
0,2145	-8,6	0,2
0,215	-10,3	-0,4
0,2155	-11,4	-1,3
0,216	-11,9	-2,1
0,2165	-11,3	-2,3
0,217	-9,1	-1,7
0,2175	-5,1	-0,2
0,218	-0,1	2,0
0,2185	4,3	4,1
0,219	6,5	5,3
0,2195	6,0	5,1
0,22	2,9	3,7
0,2205	-2,4	1,4
0,221	-9,3	-1,3
0,2215	-16,0	-3,7
0,222	-20,0	-4,8
0,2225	-20,6	-4,7
0,223	-19,4	-3,9
0,2235	-18,7	-3,3
0,224	-20,1	-3,1
0,2245	-23,8	-3,5
0,225	-29,8	-4,5
0,2255	-37,8	-6,1
0,226	-46,7	-8,3
0,2265	-54,5	-10,6
0,227	-58,7	-12,2
0,2275	-58,4	-12,9
0,228	-54,6	-12,7
0,2285	-49,2	-12,1
0,229	-43,5	-11,1
0,2295	-38,4	-10,0
0,23	-34,8	-9,3
0,2305	-33,5	-9,7
0,231	-33,6	-11,0
0,2315	-33,3	-12,3
0,232	-31,5	-13,0
0,2325	-28,2	-13,0
0,233	-23,6	-12,6
0,2335	-17,0	-11,8
0,234	-8,1	-10,4
0,2345	2,6	-8,6
0,235	12,4	-6,8
0,2355	18,7	-6,0
0,236	20,5	-6,2
0,2365	18,7	-7,3
0,237	14,5	-8,7
0,2375	9,1	-9,9
0,238	3,3	-10,5
0,2385	-0,6	-10,3
0,239	-0,9	-8,9
0,2395	1,8	-6,8
0,24	5,5	-4,5
0,2405	8,5	-2,7
0,241	10,3	-1,8
0,2415	10,9	-1,9
0,242	9,8	-2,9
0,2425	6,4	-4,4
0,243	1,2	-5,9
0,2435	-3,8	-7,0
0,244	-6,4	-7,2
0,2445	-5,9	-6,3
0,245	-3,3	-4,6
0,2455	0,0	-2,0
0,246	2,7	0,9
0,2465	3,4	3,4
0,247	0,9	4,6
0,2475	-4,6	4,4
0,248	-11,1	3,2
0,2485	-16,3	1,7
0,249	-19,3	0,3
0,2495	-20,1	-0,9
0,25	-18,6	-1,3
0,2505	-14,3	-0,8
0,251	-7,5	0,7
0,2515	0,4	2,4
0,252	7,1	3,5
0,2525	11,0	3,4
0,253	12,0	2,4
0,2535	10,8	1,2
0,254	7,9	-0,0
0,2545	4,5	-1,3
0,255	2,1	-2,4
0,2555	2,0	-3,0
0,256	4,3	-2,9
0,2565	7,1	-2,3
0,257	8,7	-1,6
0,2575	8,6	-1,1
0,258	7,1	-1,0
0,2585	3,3	-1,3
0,259	-3,5	-2,1
0,2595	-13,2	-3,3
0,26	-23,4	-4,7
0,2605	-30,7	-5,5
0,261	-33,2	-5,3
0,2615	-30,9	-4,0
0,262	-25,8	-2,0
0,2625	-19,6	0,3
0,263	-14,2	2,3
0,2635	-11,7	3,5
0,264	-13,1	3,6
0,2645	-17,3	3,1
0,265	-22,3	2,2
0,2655	-26,5	1,3
0,266	-29,3	0,4
0,2665	-30,4	-0,2
0,267	-28,8	-0,7
0,2675	-24,0	-0,9
0,268	-17,0	-0,9
0,2685	-10,0	-1,1
0,269	-5,3	-1,9
0,2695	-3,5	-3,5
0,27	-3,8	-5,9
0,2705	-5,8	-8,4
0,271	-9,4	-10,6
0,2715	-13,3	-12,2
0,272	-15,2	-12,3
0,2725	-13,4	-10,6
0,273	-8,8	-7,3
0,2735	-3,8	-3,4
0,274	-0,4	-0,1
0,2745	0,7	2,1
0,275	-0,7	3,0
0,2755	-4,5	2,8
0,276	-10,8	1,9
0,2765	-18,7	1,0
0,277	-26,2	0,4
0,2775	-31,3	0,0
0,278	-32,9	-0,4
0,2785	-31,0	-0,9
0,279	-26,5	-1,2
0,2795	-20,7	-0,8
0,28	-16,0	0,0
0,2805	-14,9	0,4
0,281	-17,4	0,2
0,2815	-21,6	-0,5
0,282	-25,3	-1,4
0,2825	-27,4	-2,5
0,283	-27,3	-3,6
0,2835	-24,5	-4,2
0,284	-18,7	-4,1
0,2845	-10,3	-3,2
0,285	-1,5	-2,0
0,2855	5,1	-1,1
0,286	8,0	-0,8
0,2865	7,1	-1,1
0,287	3,3	-2,1
0,2875	-2,3	-3,4
0,288	-8,4	-4,7
0,2885	-13,0	-5,2
0,289	-14,3	-4,7
0,2895	-12,2	-3,6
0,29	-8,2	-2,8
0,2905	-4,2	-2,6
0,291	-0,9	-3,0
0,2915	0,7	-3,6
0,292	-0,3	-4,6
0,2925	-4,5	-6,0
0,293	-11,3	-7,8
0,2935	-18,2	-9,4
0,294	-22,4	-10,3
0,2945	-23,0	-10,7
0,295	-20,3	-10,6
0,2955	-15,6	-10,3
0,296	-9,7	-9,8
0,2965	-4,4	-8,9
0,297	-1,9	-7,9
0,2975	-3,1	-7,2
0,298	-6,8	-6,9
0,2985	-11,0	-6,9
0,299	-14,1	-7,0
0,2995	-15,5	-6,8
0,3	-14,2	-6,0
0,3005	-9,2	-4,6
0,301	-0,9	-2,8
0,3015	8,5	-1,4
0,302	15,4	-1,3
0,3025	17,5	-2,4
0,303	14,6	-4,1
0,3035	8,3	-5,9
0,304	0,3	-7,8
0,3045	-7,8	-9,6
0,305	-14,0	-11,0
0,3055	-16,2	-11,4
0,306	-14,2	-11,0
0,3065	-9,9	-10,2
0,307	-5,9	-9,5
0,3075	-3,6	-9,3
0,308	-3,3	-9,5
0,3085	-5,4	-10,2
0,309	-9,8	-11,3
0,3095	-15,8	-12,6
0,31	-21,8	-13,8
0,3105	-25,6	-14,3
0,311	-26,3	-13,8
0,3115	-24,9	-12,6
0,312	-22,8	-11,0
0,3125	-20,8	-9,3
0,313	-19,7	-7,8
0,3135	-21,0	-7,0
0,314	-25,8	-7,2
0,3145	-33,4	-8,2
0,315	-41,8	-9,3
0,3155	-49,0	-10,0
0,316	-54,2	-10,1
0,3165	-56,1	-9,7
0,317	-53,3	-8,7
0,3175	-45,6	-7,2
0,318	-34,6	-5,3
0,3185	-23,5	-3,5
0,319	-15,5	-2,3
0,3195	-12,0	-1,9
0,32	-12,4	-2,4
0,3205	-15,9	-3,8
0,321	-21,2	-5,7
0,3215	-26,5	-7,3
0,322	-29,4	-7,8
0,3225	-28,2	-7,4
0,323	-23,3	-6,6
0,3235	-16,5	-6,2
0,324	-9,8	-6,5
0,3245	-4,7	-7,3
0,325	-2,4	-8,3
0,3255	-3,8	-9,8
0,326	-8,2	-11,5
0,3265	-13,7	-13,4
0,327	-17,6	-14,7
0,3275	-18,5	-15,0
0,328	-16,7	-14,4
0,3285	-13,3	-12,9
0,329	-9,1	-10,9
0,3295	-4,9	-8,8
0,33	-2,8	-7,0
0,3305	-4,7	-6,3
0,331	-10,6	-6,6
0,3315	-18,3	-7,5
0,332	-25,5	-8,4
0,3325	-30,7	-8,8
0,333	-33,4	-8,2
0,3335	-32,9	-6,6
0,334	-28,7	-4,0
0,3345	-21,3	-0,8
0,335	-13,3	1,9
0,3355	-7,5	3,5
0,336	-5,7	3,3
0,3365	-7,3	1,9
0,337	-11,2	0,0
0,3375	-16,2	-1,8
0,338	-21,2	-3,2
0,3385	-24,4	-4,1
0,339	-24,0	-4,2
0,3395	-20,4	-3,9
0,34	-15,6	-3,8
0,3405	-11,4	-3,9
0,341	-8,6	-4,3
0,3415	-7,4	-4,6
0,342	-8,6	-5,3
0,3425	-12,5	-6,7
0,343	-18,1	-8,7
0,3435	-23,0	-10,7
0,344	-25,1	-12,0
0,3445	-23,4	-12,2
0,345	-18,8	-11,3
0,3455	-12,4	-9,7
0,346	-5,1	-7,7
0,3465	1,3	-6,0
0,347	4,4	-5,7
0,3475	3,1	-6,5
0,348	-1,4	-7,9
0,3485	-6,6	-8,8
0,349	-10,8	-8,7
0,3495	-13,1	-7,8
0,35	-12,8	-6,2
0,3505	-8,7	-4,0
0,351	-1,1	-1,4
0,3515	8,3	1,3
0,352	16,0	3,3
0,3525	19,7	4,3
0,353	18,8	4,2
0,3535	14,9	3,3
0,354	9,8	1,8
0,3545	4,7	0,2
0,355	1,0	-0,9
0,3555	-0,5	-0,7
0,356	-0,7	1,0
0,3565	-1,7	3,6
0,357	-4,9	6,2
0,3575	-10,1	8,2
0,358	-16,3	9,2
0,3585	-23,2	8,7
0,359	-30,7	6,9
0,3595	-38,8	4,3
0,36	-46,4	1,8
0,3605	-51,3	0,1
0,361	-52,1	-0,4
0,3615	-48,8	0,0
0,362	-42,6	0,9
0,3625	-34,2	2,0
0,363	-25,0	3,0
0,3635	-17,5	3,4
0,364	-13,5	2,8
0,3645	-13,0	1,7
0,365	-14,4	0,4
0,3655	-15,9	-0,6
0,366	-16,9	-1,0
0,3665	-17,0	-0,8
0,367	-15,3	0,4
0,3675	-11,4	2,3
0,368	-5,9	4,4
0,3685	-1,1	5,8
0,369	1,0	6,2
0,3695	-0,0	5,6
0,37	-3,5	4,4
0,3705	-8,5	2,7
0,371	-14,2	0,5
0,3715	-19,3	-1,9
0,372	-21,3	-3,4
0,3725	-19,2	-3,8
0,373	-14,1	-3,2
0,3735	-8,4	-2,2
0,374	-4,3	-1,3
0,3745	-2,6	-0,3
0,375	-3,9	0,6
0,3755	-8,7	0,7
0,376	-16,3	-0,3
0,3765	-24,9	-1,9
0,377	-31,9	-3,3
0,3775	-35,4	-3,5
0,378	-35,2	-2,7
0,3785	-31,9	-0,9
0,379	-26,7	1,3
0,3795	-20,6	3,9
0,38	-15,4	5,9
0,3805	-13,3	6,7
0,381	-14,5	5,8
0,3815	-17,8	4,1
0,382	-21,1	2,3
0,3825	-23,5	1,2
0,383	-24,9	0,8
0,3835	-24,4	1,6
0,384	-21,3	3,3
0,3845	-15,2	5,1
0,385	-7,9	6,3
0,3855	-2,3	6,7
0,386	0,2	6,0
0,3865	-0,9	4,6
0,387	-4,8	2,6
0,3875	-10,6	0,6
0,388	-17,1	-0,8
0,3885	-21,6	-1,0
0,389	-22,2	0,6
0,3895	-19,0	3,0
0,39	-14,1	5,2
0,3905	-9,8	6,5
0,391	-7,1	7,0
0,3915	-6,3	7,0
0,392	-7,9	6,3
0,3925	-11,8	4,9
0,393	-17,3	2,7
0,3935	-22,6	0,2
0,394	-25,9	-1,8
0,3945	-26,9	-2,8
0,395	-26,2	-3,1
0,3955	-24,4	-2,8
0,396	-21,9	-2,1
0,3965	-19,6	-1,2
0,397	-19,0	-0,9
0,3975	-20,8	-1,7
0,398	-23,9	-3,4
0,3985	-26,5	-5,1
0,399	-27,8	-6,1
0,3995	-27,9	-6,2
0,4	-26,3	-5,1
0,4005	-22,0	-3,0
0,401	-14,8	-0,3
0,4015	-5,9	2,2
0,402	1,6	3,4
0,4025	5,9	3,5
0,403	6,4	2,6
0,4035	4,1	1,3
0,404	-0,2	-0,1
0,4045	-5,7	-1,4
0,405	-10,6	-2,0
0,4055	-12,6	-1,4
0,406	-11,3	0,4
0,4065	-8,1	2,6
0,407	-5,3	4,3
0,4075	-3,9	4,9
0,408	-4,5	4,6
0,4085	-7,8	3,5
0,409	-14,2	1,8
0,4095	-22,8	-0,1
0,41	-31,0	-1,7
0,4105	-35,8	-2,2
0,411	-36,3	-1,5
0,4115	-33,3	-0,2
0,412	-28,7	1,6
0,4125	-24,1	3,7
0,413	-20,5	5,9
0,4135	-19,3	7,3
0,414	-21,3	7,4
0,4145	-25,3	6,2
0,415	-29,3	4,6
0,4155	-31,7	3,2
0,416	-32,3	2,2
0,4165	-31,2	1,7
0,417	-27,9	1,7
0,4175	-22,0	2,3
0,418	-14,6	3,3
0,4185	-8,1	4,4
0,419	-5,1	4,9
0,4195	-6,2	4,8
0,42	-10,5	4,0
0,4205	-16,8	2,8
0,421	-23,9	1,3
0,4215	-30,5	-0,1
0,422	-34,8	-0,4
0,4225	-36,3	0,5
0,423	-36,3	1,9
0,4235	-36,1	2,8
0,424	-36,7	2,5
0,4245	-37,8	1,2
0,425	-39,5	-0,8
0,4255	-42,4	-2,9
0,426	-46,6	-5,0
0,4265	-51,5	-6,8
0,427	-55,4	-8,0
0,4275	-56,9	-8,6
0,428	-55,9	-8,6
0,4285	-52,7	-7,8
0,429	-47,8	-6,2
0,4295	-41,3	-3,6
0,43	-34,5	-0,5
0,4305	-28,9	2,1
0,431	-25,6	3,8
0,4315	-23,8	4,7
0,432	-22,9	5,0
0,4325	-22,7	5,0
0,433	-23,8	5,1
0,4335	-25,3	6,0
0,434	-26,0	7,9
0,4345	-24,6	10,4
0,435	-22,1	12,8
0,4355	-20,8	14,0
0,436	-22,7	13,8
0,4365	-28,1	12,2
0,437	-35,8	9,9
0,4375	-44,1	7,4
0,438	-51,3	5,0
0,4385	-55,1	3,4
0,439	-53,9	2,9
0,4395	-48,6	3,3
0,44	-41,9	4,0
0,4405	-36,1	4,8
0,441	-31,9	5,5
0,4415	-30,0	6,1
0,442	-30,9	6,3
0,4425	-35,0	5,3
0,443	-41,0	3,5
0,4435	-46,4	1,4
0,444	-48,6	-0,3
0,4445	-46,6	-1,1
0,445	-40,8	-1,4
0,4455	-32,7	-1,3
0,446	-23,3	-1,2
0,4465	-14,7	-1,0
0,447	-9,3	-1,2
0,4475	-8,3	-2,1
0,448	-10,1	-3,6
0,4485	-12,5	-5,5
0,449	-14,4	-7,7
0,4495	-15,7	-9,5
0,45	-16,0	-10,4
0,4505	-14,2	-10,3
0,451	-10,0	-9,0
0,4515	-4,2	-7,0
0,452	0,9	-5,1
0,4525	3,7	-3,8
0,453	3,5	-3,4
0,4535	0,7	-4,0
0,454	-4,4	-5,4
0,4545	-11,0	-7,4
0,455	-17,1	-9,3
0,4555	-20,0	-10,2
0,456	-19,3	-9,7
0,4565	-16,4	-8,2
0,457	-13,8	-6,4
0,4575	-12,5	-5,1
0,458	-12,7	-4,7
0,4585	-14,8	-5,1
0,459	-19,8	-6,2
0,4595	-27,9	-7,4
0,46	-37,5	-8,1
0,4605	-46,0	-7,8
0,461	-51,3	-6,6
0,4615	-52,8	-5,3
0,462	-51,1	-4,2
0,4625	-47,0	-3,5
0,463	-41,9	-3,2
0,4635	-38,0	-3,2
0,464	-37,2	-4,0
0,4645	-39,2	-5,3
0,465	-42,3	-6,4
0,4655	-45,0	-7,0
0,466	-46,4	-7,2
0,4665	-46,3	-7,2
0,467	-43,7	-7,0
0,4675	-37,6	-6,2
0,468	-28,7	-4,6
0,4685	-18,8	-2,8
0,469	-10,8	-1,7
0,4695	-6,1	-1,6
0,47	-4,8	-2,6
0,4705	-6,4	-4,3
0,471	-10,2	-6,5
0,4715	-14,7	-8,2
0,472	-18,0	-8,4
0,4725	-19,2	-6,8
0,473	-19,0	-3,9
0,4735	-19,2	-1,2
0,474	-20,4	0,5
0,4745	-22,4	1,0
0,475	-25,1	0,3
0,4755	-28,9	-1,4
0,476	-34,0	-3,8
0,4765	-39,8	-6,1
0,477	-44,3	-8,0
0,4775	-45,7	-8,9
0,478	-43,5	-8,9
0,4785	-37,9	-8,2
0,479	-29,9	-7,0
0,4795	-20,8	-5,4
0,48	-12,9	-4,0
0,4805	-9,0	-3,3
0,481	-9,5	-3,6
0,4815	-12,6	-4,6
0,482	-16,1	-5,8
0,4825	-18,5	-6,8
0,483	-19,8	-7,4
0,4835	-19,3	-7,3
0,484	-17,0	-6,2
0,4845	-13,3	-4,1
0,485	-9,7	-1,8
0,4855	-8,6	-0,2
0,486	-10,8	0,3
0,4865	-16,3	-0,1
0,487	-23,5	-1,0
0,4875	-31,4	-2,3
0,488	-38,8	-3,2
0,4885	-43,5	-3,1
0,489	-44,2	-1,5
0,4895	-41,8	1,0
0,49	-38,3	3,0
0,4905	-35,8	3,6
0,491	-34,8	2,4
0,4915	-35,4	0,4
0,492	-38,0	-2,0
0,4925	-42,3	-4,2
0,493	-47,5	-6,1
0,4935	-51,5	-7,5
0,494	-52,3	-7,9
0,4945	-49,3	-7,3
0,495	-43,3	-5,8
0,4955	-35,3	-3,6
0,496	-26,6	-1,3
0,4965	-18,4	0,8
0,497	-13,4	1,9
0,4975	-12,7	1,6
0,498	-15,2	0,3
0,4985	-18,5	-1,5
0,499	-20,9	-2,9
0,4995	-22,2	-3,8
0,5	-21,9	-3,8
0,5005	-19,3	-2,9
0,501	-14,0	-1,4
0,5015	-7,3	0,2
0,502	-1,6	1,4
0,5025	1,1	1,9
0,503	0,3	1,6
0,5035	-3,3	0,4
0,504	-8,8	-1,3
0,5045	-15,3	-3,2
0,505	-21,3	-4,6
0,5055	-24,8	-4,9
0,506	-25,5	-4,3
0,5065	-24,4	-3,3
0,507	-23,4	-2,6
0,5075	-23,8	-2,4
0,508	-26,3	-2,3
0,5085	-32,3	-2,4
0,509	-41,8	-2,7
0,5095	-53,4	-3,2
0,51	-63,8	-3,9
0,5105	-70,0	-4,6
0,511	-70,5	-5,0
0,5115	-66,2	-5,1
0,512	-58,8	-5,2
0,5125	-49,8	-5,3
0,513	-40,5	-5,1
0,5135	-33,4	-5,0
0,514	-30,8	-5,4
0,5145	-32,3	-6,2
0,515	-36,0	-6,8
0,5155	-39,7	-6,8
0,516	-42,4	-6,5
0,5165	-43,8	-5,9
0,517	-43,0	-4,9
0,5175	-39,7	-3,3
0,518	-34,6	-1,1
0,5185	-29,8	1,3
0,519	-27,5	3,0
0,5195	-28,2	3,5
0,52	-31,0	2,9
0,5205	-34,9	1,7
0,521	-39,7	0,4
0,5215	-44,8	-0,6
0,522	-48,5	-1,0
0,5225	-49,1	-0,8
0,523	-46,4	-0,3
0,5235	-41,9	0,2
0,524	-37,3	0,5
0,5245	-33,8	0,4
0,525	-32,9	-0,7
0,5255	-35,4	-3,2
0,526	-41,2	-6,9
0,5265	-48,7	-10,7
0,527	-55,8	-13,0
0,5275	-60,4	-13,5
0,528	-61,5	-12,2
0,5285	-58,9	-9,8
0,529	-52,8	-7,3
0,5295	-44,2	-4,8
0,53	-35,3	-2,9
0,5305	-28,8	-2,3
0,531	-26,1	-2,8
0,5315	-26,2	-3,7
0,532	-27,0	-4,3
0,5325	-27,3	-4,3
0,533	-26,8	-3,5
0,5335	-25,3	-1,9
0,534	-22,4	0,4
0,5345	-17,8	3,3
0,535	-12,7	6,4
0,5355	-8,7	9,0
0,536	-7,0	10,3
0,5365	-8,0	10,1
0,537	-11,6	8,6
0,5375	-18,0	6,3
0,538	-26,5	4,0
0,5385	-34,9	2,8
0,539	-40,5	2,8
0,5395	-42,1	3,6
0,54	-40,9	4,4
0,5405	-38,6	4,8
0,541	-36,5	4,9
0,5415	-35,4	4,6
0,542	-36,5	3,8
0,5425	-40,8	2,4
0,543	-48,2	0,7
0,5435	-56,9	-0,9
0,544	-64,3	-1,7
0,5445	-68,8	-1,3
0,545	-69,8	-0,0
0,5455	-67,9	1,7
0,546	-63,7	3,5
0,5465	-59,0	4,9
0,547	-56,3	5,3
0,5475	-56,8	4,4
0,548	-59,7	2,8
0,5485	-63,0	1,1
0,549	-65,1	0,1
0,5495	-65,8	-0,3
0,55	-65,2	-0,0
0,5505	-62,8	0,9
0,551	-58,3	2,6
0,5515	-52,6	4,8
0,552	-47,2	6,7
0,5525	-43,9	7,6
0,553	-43,0	7,3
0,5535	-43,7	6,2
0,554	-45,3	4,3
0,5545	-47,2	2,3
0,555	-47,9	0,4
0,5555	-45,4	-0,7
0,556	-39,1	-0,8
0,5565	-30,8	-0,2
0,557	-23,3	0,7
0,5575	-18,5	1,6
0,558	-16,8	2,4
0,5585	-18,1	2,8
0,559	-22,2	2,5
0,5595	-28,2	1,4
0,56	-34,1	0,1
0,5605	-37,7	-0,9
0,561	-37,7	-1,2
0,5615	-34,3	-0,8
0,562	-29,0	0,1
0,5625	-22,8	1,4
0,563	-17,6	3,1
0,5635	-15,3	4,6
0,564	-17,4	5,0
0,5645	-23,4	4,1
0,565	-31,2	2,6
0,5655	-38,7	1,0
0,566	-44,4	-0,4
0,5665	-47,3	-1,2
0,567	-46,0	-1,1
0,5675	-40,2	0,3
0,568	-31,0	2,4
0,5685	-21,5	4,3
0,569	-14,7	5,1
0,5695	-12,3	4,7
0,57	-13,8	3,3
0,5705	-18,2	1,6
0,571	-24,6	-0,3
0,5715	-31,5	-1,8
0,572	-36,4	-2,5
0,5725	-37,5	-2,0
0,573	-35,3	-0,8
0,5735	-31,6	0,6
0,574	-28,5	1,8
0,5745	-26,8	2,8
0,575	-27,1	3,3
0,5755	-29,5	2,8
0,576	-33,8	1,1
0,5765	-38,4	-1,0
0,577	-41,3	-2,5
0,5775	-41,2	-2,9
0,578	-38,3	-2,2
0,5785	-34,1	-0,8
0,579	-29,5	0,8
0,5795	-24,8	2,2
0,58	-21,2	2,8
0,5805	-20,2	1,8
0,581	-22,1	-0,8
0,5815	-25,4	-3,7
0,582	-27,9	-6,0
0,5825	-29,2	-7,1
0,583	-29,3	-7,1
0,5835	-27,9	-6,3
0,584	-24,1	-4,7
0,5845	-18,2	-2,5
0,585	-11,6	-0,1
0,5855	-6,8	1,8
0,586	-5,2	2,7
0,5865	-6,8	2,2
0,587	-10,7	0,8
0,5875	-16,7	-1,2
0,588	-24,3	-2,9
0,5885	-31,9	-3,8
0,589	-37,3	-3,5
0,5895	-40,3	-2,4
0,59	-42,3	-1,3
0,5905	-44,2	-0,7
0,591	-45,8	-0,6
0,5915	-46,6	-1,2
0,592	-47,7	-2,7
0,5925	-49,6	-5,1
0,593	-51,9	-7,7
0,5935	-53,3	-9,6
0,594	-52,3	-10,0
0,5945	-49,1	-8,7
0,595	-44,7	-6,4
0,5955	-40,0	-4,0
0,596	-35,5	-1,8
0,5965	-31,9	-0,2
0,597	-30,8	0,5
0,5975	-33,4	0,3
0,598	-38,5	-0,5
0,5985	-43,9	-1,0
0,599	-48,0	-0,8
0,5995	-49,9	-0,2
0,6	-49,0	0,9
0,6005	-44,3	2,2
0,601	-35,7	3,8
0,6015	-24,7	5,2
0,602	-14,1	5,8
0,6025	-6,9	5,6
0,603	-4,5	4,7
0,6035	-6,8	3,7
0,604	-12,6	2,4
0,6045	-19,7	1,0
0,605	-25,5	-0,3
0,6055	-27,6	-0,8
0,606	-25,5	-0,7
0,6065	-21,2	-0,3
0,607	-16,9	0,0
0,6075	-14,2	0,1
0,608	-13,2	0,0
0,6085	-14,3	-0,3
0,609	-17,8	-0,9
0,6095	-23,8	-1,8
0,61	-30,8	-2,6
0,6105	-36,4	-2,6
0,611	-39,0	-1,8
0,6115	-38,4	-0,5
0,612	-35,5	1,0
0,6125	-31,1	2,0
0,613	-26,4	2,6
0,6135	-23,5	2,6
0,614	-24,3	2,0
0,6145	-28,5	1,3
0,615	-34,3	1,1
0,6155	-40,5	1,6
0,616	-46,8	2,5
0,6165	-53,0	3,7
0,617	-57,7	5,2
0,6175	-59,2	6,8
0,618	-56,8	8,3
0,6185	-51,9	9,3
0,619	-47,2	9,6
0,6195	-44,7	9,1
0,62	-44,5	8,3
0,6205	-46,2	7,1
0,621	-49,0	5,0
0,6215	-51,8	2,3
0,622	-52,6	-0,0
0,6225	-49,9	-1,2
0,623	-43,9	-1,2
0,6235	-36,9	-0,4
0,624	-31,5	0,4
0,6245	-29,2	0,9
0,625	-30,8	0,7
0,6255	-36,3	-0,2
0,626	-44,6	-1,8
0,6265	-53,6	-3,3
0,627	-60,3	-4,0
0,6275	-62,6	-3,5
0,628	-60,3	-2,3
0,6285	-54,6	-1,1
0,629	-46,7	-0,2
0,6295	-37,7	0,5
0,63	-30,0	0,8
0,6305	-26,2	0,7
0,631	-27,3	-0,1
0,6315	-31,7	-1,2
0,632	-36,2	-2,0
0,6325	-38,4	-2,4
0,633	-38,0	-2,7
0,6335	-34,3	-2,6
0,634	-26,7	-1,8
0,6345	-16,6	-0,4
0,635	-7,7	0,6
0,6355	-3,5	0,3
0,636	-4,0	-1,1
0,6365	-6,4	-3,0
0,637	-8,9	-4,9
0,6375	-11,2	-6,8
0,638	-13,3	-8,6
0,6385	-14,2	-9,8
0,639	-12,7	-10,0
0,6395	-8,8	-9,4
0,64	-4,0	-8,5
0,6405	0,0	-7,5
0,641	2,1	-6,8
0,6415	1,5	-6,4
0,642	-1,8	-6,3
0,6425	-7,3	-6,3
0,643	-15,0	-7,0
0,6435	-23,8	-8,4
0,644	-31,8	-9,9
0,6445	-36,2	-10,6
0,645	-36,4	-10,2
0,6455	-33,3	-9,1
0,646	-28,1	-7,6
0,6465	-22,3	-6,0
0,647	-18,7	-4,7
0,6475	-18,9	-3,7
0,648	-23,0	-3,1
0,6485	-29,2	-2,3
0,649	-35,6	-1,3
0,6495	-40,3	-0,5
0,65	-41,9	-0,4
0,6505	-39,7	-0,9
0,651	-34,0	-1,6
0,6515	-26,8	-1,8
0,652	-20,9	-1,6
0,6525	-18,2	-1,2
0,653	-19,2	-1,2
0,6535	-23,2	-1,9
0,654	-28,9	-3,3
0,6545	-34,8	-5,5
0,655	-38,4	-7,7
0,6555	-37,7	-9,2
0,656	-32,1	-9,6
0,6565	-23,8	-9,1
0,657	-15,7	-8,3
0,6575	-9,7	-7,5
0,658	-6,8	-7,0
0,6585	-7,5	-6,8
0,659	-12,1	-7,1
0,6595	-20,4	-7,8
0,66	-30,7	-8,8
0,6605	-40,1	-9,4
0,661	-46,4	-9,7
0,6615	-48,9	-9,5
0,662	-48,1	-8,6
0,6625	-44,9	-6,9
0,663	-40,7	-4,3
0,6635	-37,4	-2,0
0,664	-36,6	-1,3
0,6645	-38,2	-2,8
0,665	-40,4	-5,6
0,6655	-41,4	-8,6
0,666	-40,8	-10,9
0,6665	-39,0	-12,2
0,667	-35,9	-12,5
0,6675	-31,6	-11,9
0,668	-26,6	-10,8
0,6685	-21,9	-9,8
0,669	-19,2	-9,2
0,6695	-19,3	-9,3
0,67	-22,1	-9,9
0,6705	-26,6	-11,1
0,671	-31,9	-12,5
0,6715	-36,5	-13,9
0,672	-38,0	-14,6
0,6725	-35,3	-14,1
0,673	-29,4	-12,8
0,6735	-22,9	-10,9
0,674	-18,3	-9,1
0,6745	-16,2	-7,4
0,675	-17,3	-6,2
0,6755	-22,4	-5,5
0,676	-31,3	-5,9
0,6765	-42,5	-7,3
0,677	-52,9	-9,3
0,6775	-60,0	-10,8
0,678	-62,8	-11,1
0,6785	-61,2	-10,0
0,679	-55,8	-8,0
0,6795	-47,9	-5,5
0,68	-40,4	-3,3
0,6805	-36,4	-2,1
0,681	-36,9	-1,8
0,6815	-40,7	-2,1
0,682	-45,6	-2,4
0,6825	-49,9	-2,5
0,683	-52,7	-2,4
0,6835	-52,9	-2,1
0,684	-49,9	-1,2
0,6845	-44,1	0,6
0,685	-37,3	2,4
0,6855	-31,9	3,4
0,686	-29,7	3,2
0,6865	-30,4	1,7
0,687	-32,9	-0,3
0,6875	-36,0	-2,1
0,688	-39,0	-3,0
0,6885	-40,1	-2,6
0,689	-37,7	-1,1
0,6895	-31,9	0,7
0,69	-24,7	1,9
0,6905	-18,1	2,3
0,691	-13,3	1,8
0,6915	-10,4	0,9
0,692	-10,2	-0,6
0,6925	-13,0	-2,6
0,693	-18,1	-4,8
0,6935	-23,9	-6,7
0,694	-28,3	-7,6
0,6945	-30,2	-7,5
0,695	-29,3	-6,5
0,6955	-26,0	-5,2
0,696	-21,0	-3,6
0,6965	-15,8	-2,2
0,697	-12,7	-1,5
0,6975	-13,3	-1,9
0,698	-17,2	-3,1
0,6985	-22,4	-4,5
0,699	-27,2	-5,8
0,6995	-30,9	-6,9
0,7	-32,7	-7,7
0,7005	-31,9	-8,1
0,701	-28,3	-7,8
0,7015	-22,7	-7,0
0,702	-17,4	-6,2
0,7025	-14,1	-6,0
0,703	-13,6	-6,8
0,7035	-15,3	-8,1
0,704	-18,6	-9,3
0,7045	-22,8	-10,3
0,705	-26,4	-10,7
0,7055	-27,4	-10,1
0,706	-25,2	-8,6
0,7065	-20,7	-6,7
0,707	-16,2	-5,0
0,7075	-12,9	-4,2
0,708	-11,3	-4,3
0,7085	-11,8	-5,4
0,709	-14,9	-7,4
0,7095	-20,3	-9,5
0,71	-26,8	-11,2
0,7105	-32,0	-11,9
0,711	-34,6	-11,6
0,7115	-34,3	-10,1
0,712	-31,6	-7,8
0,7125	-26,8	-5,0
0,713	-20,8	-2,2
0,7135	-15,6	-0,2
0,714	-13,7	0,6
0,7145	-15,0	0,1
0,715	-17,6	-1,0
0,7155	-19,3	-2,2
0,716	-19,0	-3,0
0,7165	-17,1	-3,2
0,717	-13,2	-2,6
0,7175	-7,3	-1,1
0,718	0,1	1,1
0,7185	7,2	3,4
0,719	11,7	4,9
0,7195	12,5	4,9
0,72	9,9	3,5
0,7205	5,1	1,2
0,721	-1,2	-1,4
0,7215	-7,4	-3,9
0,722	-11,6	-5,6
0,7225	-12,3	-6,1
0,723	-9,8	-5,6
0,7235	-6,1	-4,7
0,724	-2,6	-3,8
0,7245	-0,1	-3,2
0,725	0,1	-2,9
0,7255	-3,7	-3,5
0,726	-11,9	-4,7
0,7265	-23,3	-6,1
0,727	-34,5	-6,6
0,7275	-42,7	-6,0
0,728	-46,2	-4,3
0,7285	-45,0	-2,3
0,729	-40,0	-0,3
0,7295	-32,3	1,2
0,73	-24,3	1,8
0,7305	-18,9	1,3
0,731	-17,6	0,1
0,7315	-19,0	-1,3
0,732	-20,9	-2,2
0,7325	-21,7	-2,8
0,733	-20,8	-3,3
0,7335	-17,3	-3,7
0,734	-10,8	-3,6
0,7345	-2,0	-3,0
0,735	6,6	-2,3
0,7355	11,8	-2,0
0,736	12,2	-2,5
0,7365	8,2	-3,7
0,737	1,6	-5,2
0,7375	-6,5	-6,8
0,738	-14,8	-8,4
0,7385	-21,6	-9,5
0,739	-24,9	-10,0
0,7395	-24,6	-10,1
0,74	-21,9	-10,0
0,7405	-18,8	-9,9
0,741	-16,1	-9,5
0,7415	-14,0	-8,9
0,742	-13,6	-8,7
0,7425	-15,3	-9,6
0,743	-18,6	-11,8
0,7435	-22,1	-14,3
0,744	-23,5	-15,9
0,7445	-21,9	-15,8
0,745	-17,7	-14,1
0,7455	-11,6	-11,2
0,746	-4,6	-7,9
0,7465	2,3	-5,2
0,747	7,2	-3,8
0,7475	8,5	-3,8
0,748	6,8	-4,6
0,7485	3,7	-5,1
0,749	0,0	-4,3
0,7495	-3,9	-2,3
0,75	-7,6	0,8
0,7505	-9,4	4,3
0,751	-8,7	7,8
0,7515	-5,7	11,1
0,752	-2,8	13,4
0,7525	-2,4	14,3
0,753	-5,4	13,7
0,7535	-11,6	12,2
0,754	-19,8	10,2
0,7545	-28,5	8,0
0,755	-35,7	5,7
0,7555	-38,9	3,6
0,756	-37,6	1,8
0,7565	-33,0	0,1
0,757	-27,6	-1,4
0,7575	-23,0	-2,8
0,758	-20,1	-4,1
0,7585	-19,6	-5,5
0,759	-22,1	-7,1
0,7595	-27,1	-9,1
0,76	-33,3	-11,0
0,7605	-38,1	-12,3
0,761	-40,3	-12,7
0,7615	-39,3	-12,1
0,762	-35,4	-10,6
0,7625	-29,0	-8,0
0,763	-21,2	-4,5
0,7635	-14,7	-0,7
0,764	-11,9	2,0
0,7645	-13,1	2,6
0,765	-16,4	1,4
0,7655	-19,7	-0,7
0,766	-22,2	-2,8
0,7665	-23,7	-4,5
0,767	-23,6	-5,6
0,7675	-21,6	-5,9
0,768	-17,9	-5,6
0,7685	-14,6	-5,4
0,769	-13,5	-5,9
0,7695	-15,5	-7,4
0,77	-19,8	-9,3
0,7705	-24,9	-10,8
0,771	-29,8	-11,4
0,7715	-33,5	-11,3
0,772	-34,3	-10,4
0,7725	-31,3	-8,7
0,773	-25,5	-6,6
0,7735	-19,2	-4,7
0,774	-14,1	-3,3
0,7745	-10,3	-2,6
0,775	-7,6	-2,3
0,7755	-6,5	-2,2
0,776	-7,5	-2,8
0,7765	-10,2	-4,0
0,777	-13,1	-5,6
0,7775	-14,5	-6,9
0,778	-14,0	-7,2
0,7785	-12,3	-6,0
0,779	-10,3	-3,9
0,7795	-8,9	-1,6
0,78	-9,4	-0,1
0,7805	-13,2	-0,1
0,781	-20,0	-1,3
0,7815	-27,6	-3,1
0,782	-33,5	-4,3
0,7825	-36,3	-4,8
0,783	-36,3	-4,4
0,7835	-33,4	-3,6
0,784	-27,5	-2,4
0,7845	-19,1	-1,1
0,785	-10,0	0,0
0,7855	-3,0	0,5
0,786	0,4	0,0
0,7865	0,4	-1,3
0,787	-1,9	-3,2
0,7875	-5,5	-5,3
0,788	-9,5	-7,1
0,7885	-12,1	-8,2
0,789	-11,5	-8,1
0,7895	-7,9	-7,1
0,79	-3,3	-5,8
0,7905	0,3	-5,0
0,791	2,3	-5,1
0,7915	2,6	-5,8
0,792	0,7	-7,3
0,7925	-3,7	-9,5
0,793	-9,9	-12,1
0,7935	-15,8	-14,8
0,794	-19,5	-16,7
0,7945	-20,1	-17,6
0,795	-18,0	-17,3
0,7955	-13,9	-16,2
0,796	-8,7	-14,3
0,7965	-4,1	-12,3
0,797	-2,4	-10,9
0,7975	-4,9	-10,9
0,798	-10,1	-12,0
0,7985	-15,3	-13,4
0,799	-18,6	-14,3
0,7995	-19,6	-14,2
0,8	-18,2	-13,1
0,8005	-14,4	-11,0
0,801	-8,5	-8,3
0,8015	-1,6	-5,7
0,802	3,8	-4,3
0,8025	6,0	-4,6
0,803	4,3	-6,1
0,8035	-0,3	-7,7
0,804	-6,7	-8,9
0,8045	-13,4	-9,6
0,805	-18,4	-10,0
0,8055	-19,3	-9,9
0,806	-15,6	-9,3
0,8065	-9,0	-8,6
0,807	-2,5	-7,8
0,8075	1,6	-7,0
0,808	2,8	-6,4
0,8085	0,9	-6,2
0,809	-3,6	-6,5
0,8095	-10,2	-7,5
0,81	-17,1	-8,7
0,8105	-22,5	-9,7
0,811	-25,0	-10,1
0,8115	-24,7	-9,9
0,812	-22,3	-9,2
0,8125	-18,3	-7,9
0,813	-13,3	-6,5
0,8135	-9,7	-5,5
0,814	-9,7	-5,3
0,8145	-13,8	-5,9
0,815	-20,0	-6,8
0,8155	-26,0	-7,2
0,816	-30,5	-7,3
0,8165	-32,7	-7,4
0,817	-31,8	-7,4
0,8175	-27,3	-7,2
0,818	-19,4	-6,4
0,8185	-10,2	-5,5
0,819	-2,3	-5,0
0,8195	2,3	-5,2
0,82	2,6	-5,8
0,8205	-1,1	-6,7
0,821	-7,8	-7,4
0,8215	-15,7	-7,5
0,822	-21,6	-6,7
0,8225	-23,5	-5,1
0,823	-21,9	-3,2
0,8235	-18,8	-1,9
0,824	-16,0	-1,7
0,8245	-14,1	-2,5
0,825	-13,6	-3,8
0,8255	-15,2	-5,7
0,826	-19,3	-8,0
0,8265	-25,0	-10,6
0,827	-30,8	-12,6
0,8275	-34,8	-13,5
0,828	-35,9	-13,3
0,8285	-33,8	-12,2
0,829	-28,6	-10,7
0,8295	-22,1	-9,2
0,83	-17,3	-8,1
0,8305	-17,3	-8,4
0,831	-21,9	-10,0
0,8315	-28,9	-12,3
0,832	-35,0	-14,2
0,8325	-38,5	-15,1
0,833	-39,7	-15,0
0,8335	-38,5	-14,0
0,834	-35,0	-12,2
0,8345	-29,4	-9,8
0,835	-23,0	-7,8
0,8355	-18,3	-6,4
0,836	-17,2	-6,0
0,8365	-20,2	-6,3
0,837	-26,4	-6,8
0,8375	-34,7	-7,8
0,838	-43,2	-9,3
0,8385	-48,9	-11,0
0,839	-49,2	-12,3
0,8395	-43,7	-12,7
0,84	-34,9	-12,3
0,8405	-25,9	-11,7
0,841	-19,0	-10,9
0,8415	-14,8	-10,1
0,842	-14,4	-9,6
0,8425	-18,0	-9,6
0,843	-24,8	-10,2
0,8435	-32,7	-10,6
0,844	-38,7	-10,5
0,8445	-41,4	-10,3
0,845	-40,1	-10,5
0,8455	-34,9	-10,8
0,846	-26,6	-11,1
0,8465	-17,3	-11,2
0,847	-10,2	-11,3
0,8475	-7,8	-11,6
0,848	-10,0	-12,1
0,8485	-14,4	-12,3
0,849	-18,7	-12,1
0,8495	-21,8	-11,4
0,85	-23,0	-10,4
0,8505	-21,0	-8,7
0,851	-14,8	-6,1
0,8515	-5,6	-2,6
0,852	3,3	0,8
0,8525	8,9	2,8
0,853	10,0	3,0
0,8535	7,4	1,6
0,854	2,6	-0,9
0,8545	-3,5	-3,7
0,855	-9,3	-5,9
0,8555	-12,6	-6,7
0,856	-12,3	-5,8
0,8565	-9,1	-4,0
0,857	-4,9	-2,3
0,8575	-1,2	-1,3
0,858	1,9	-1,1
0,8585	3,5	-1,6
0,859	2,6	-2,9
0,8595	-1,2	-4,8
0,86	-6,6	-6,9
0,8605	-11,4	-8,6
0,861	-13,7	-9,5
0,8615	-12,9	-9,5
0,862	-9,6	-8,8
0,8625	-4,3	-7,4
0,863	2,0	-5,7
0,8635	7,2	-4,6
0,864	9,2	-4,6
0,8645	7,5	-5,7
0,865	4,0	-7,2
0,8655	0,8	-8,1
0,866	-1,4	-8,5
0,8665	-2,4	-8,4
0,867	-1,7	-7,9
0,8675	1,5	-6,6
0,868	7,0	-4,7
0,8685	13,1	-2,6
0,869	17,5	-1,0
0,8695	19,0	-0,5
0,87	17,6	-0,8
0,8705	13,9	-1,7
0,871	8,5	-2,8
0,8715	2,8	-4,0
0,872	-0,9	-4,9
0,8725	-1,1	-5,3
0,873	1,7	-5,3
0,8735	5,2	-5,4
0,874	7,5	-5,7
0,8745	8,1	-6,3
0,875	6,9	-6,9
0,8755	3,4	-7,9
0,876	-2,4	-9,4
0,8765	-9,9	-11,4
0,877	-16,9	-13,4
0,8775	-21,2	-14,7
0,878	-21,9	-14,8
0,8785	-19,3	-13,8
0,879	-13,9	-11,9
0,8795	-7,0	-9,8
0,88	-0,6	-8,1
0,8805	2,7	-7,5
0,881	1,5	-8,3
0,8815	-3,2	-9,8
0,882	-8,5	-11,1
0,8825	-12,6	-11,8
0,883	-15,3	-11,8
0,8835	-16,2	-11,0
0,884	-14,9	-9,4
0,8845	-11,3	-7,3
0,885	-6,4	-5,4
0,8855	-2,5	-4,7
0,886	-1,1	-5,3
0,8865	-2,0	-7,0
0,887	-4,2	-9,2
0,8875	-6,9	-11,6
0,888	-10,1	-14,0
0,8885	-12,7	-15,8
0,889	-13,9	-16,5
0,8895	-13,6	-16,0
0,89	-12,6	-14,8
0,8905	-12,3	-13,8
0,891	-13,2	-13,4
0,8915	-15,8	-13,9
0,892	-20,9	-15,2
0,8925	-29,1	-17,0
0,893	-39,7	-18,7
0,8935	-50,1	-19,6
0,894	-56,8	-19,3
0,8945	-57,9	-18,0
0,895	-53,4	-15,9
0,8955	-44,7	-13,6
0,896	-33,7	-11,2
0,8965	-22,9	-9,2
0,897	-15,4	-8,1
0,8975	-13,4	-8,0
0,898	-16,2	-8,7
0,8985	-21,2	-9,4
0,899	-25,8	-9,7
0,8995	-28,8	-9,2
0,9	-29,7	-7,8
0,9005	-27,4	-5,8
0,901	-21,6	-3,7
0,9015	-13,0	-2,1
0,902	-4,5	-1,1
0,9025	1,6	-1,0
0,903	4,4	-1,7
0,9035	4,3	-3,1
0,904	1,6	-5,1
0,9045	-2,9	-7,3
0,905	-7,7	-9,0
0,9055	-10,6	-9,6
0,906	-10,3	-8,9
0,9065	-7,4	-7,3
0,907	-3,5	-5,0
0,9075	0,1	-2,6
0,908	2,4	-0,7
0,9085	2,2	0,2
0,909	-1,3	-0,8
0,9095	-7,9	-3,3
0,91	-15,4	-6,6
0,9105	-21,0	-9,2
0,911	-23,1	-10,6
0,9115	-21,5	-10,8
0,912	-17,4	-10,4
0,9125	-11,6	-9,5
0,913	-5,2	-8,5
0,9135	0,2	-7,7
0,914	3,0	-7,8
0,9145	2,8	-8,7
0,915	1,3	-9,7
0,9155	-0,1	-10,1
0,916	-0,3	-9,8
0,9165	0,5	-9,1
0,917	2,8	-8,3
0,9175	6,8	-7,4
0,918	11,8	-6,3
0,9185	15,7	-5,1
0,919	16,1	-4,3
0,9195	12,7	-4,4
0,92	6,5	-5,3
0,9205	-0,9	-7,1
0,921	-8,8	-9,2
0,9215	-16,5	-11,1
0,922	-22,2	-11,9
0,9225	-24,2	-11,1
0,923	-22,8	-9,0
0,9235	-19,5	-6,5
0,924	-16,3	-4,4
0,9245	-13,6	-3,1
0,925	-12,1	-2,7
0,9255	-12,5	-3,3
0,926	-15,2	-4,8
0,9265	-19,4	-6,4
0,927	-23,4	-7,4
0,9275	-25,8	-7,8
0,928	-26,2	-7,4
0,9285	-24,8	-6,8
0,929	-21,9	-6,0
0,9295	-18,3	-4,8
0,93	-15,4	-3,8
0,9305	-14,8	-3,9
0,931	-17,2	-5,6
0,9315	-21,1	-8,5
0,932	-24,2	-11,4
0,9325	-25,1	-13,3
0,933	-23,4	-13,8
0,9335	-18,8	-13,1
0,934	-11,2	-11,3
0,9345	-1,2	-9,2
0,935	9,0	-7,5
0,9355	16,5	-6,8
0,936	19,4	-7,2
0,9365	17,6	-8,3
0,937	11,9	-9,7
0,9375	3,7	-11,3
0,938	-5,9	-13,0
0,9385	-14,6	-14,1
0,939	-19,9	-13,8
0,9395	-21,1	-11,8
0,94	-19,1	-8,8
0,9405	-15,9	-5,8
0,941	-12,8	-3,8
0,9415	-10,3	-2,7
0,942	-9,6	-2,7
0,9425	-11,5	-3,6
0,943	-16,1	-5,3
0,9435	-21,6	-7,2
0,944	-25,5	-9,0
0,9445	-26,9	-10,3
0,945	-26,2	-10,9
0,9455	-24,2	-10,9
0,946	-21,3	-10,1
0,9465	-18,1	-9,1
0,947	-16,2	-8,4
0,9475	-16,8	-8,7
0,948	-19,4	-9,8
0,9485	-22,5	-11,0
0,949	-24,1	-11,9
0,9495	-24,3	-12,1
0,95	-23,3	-11,5
0,9505	-20,3	-10,2
0,951	-14,9	-8,4
0,9515	-7,4	-6,3
0,952	0,3	-4,4
0,9525	5,4	-3,0
0,953	6,4	-2,0
0,9535	2,9	-1,6
0,954	-4,5	-1,7
0,9545	-14,3	-2,3
0,955	-24,5	-3,2
0,9555	-32,0	-3,7
0,956	-34,8	-3,6
0,9565	-32,7	-2,9
0,957	-27,7	-2,0
0,9575	-21,7	-1,1
0,958	-16,2	-0,3
0,9585	-13,1	-0,2
0,959	-14,1	-0,9
0,9595	-19,3	-2,6
0,96	-26,8	-4,5
0,9605	-33,3	-6,2
0,961	-36,0	-7,1
0,9615	-34,4	-7,2
0,962	-29,3	-6,8
0,9625	-21,7	-5,9
0,963	-13,4	-4,8
0,9635	-6,7	-3,9
0,964	-3,9	-3,7
0,9645	-5,5	-3,9
0,965	-10,0	-4,4
0,9655	-15,0	-4,7
0,966	-19,6	-4,8
0,9665	-23,7	-4,6
0,967	-26,8	-3,9
0,9675	-27,9	-2,3
0,968	-26,6	-0,1
0,9685	-23,2	2,4
0,969	-19,5	3,9
0,9695	-17,0	4,1
0,97	-15,9	3,2
0,9705	-16,3	1,8
0,971	-17,6	0,3
0,9715	-19,3	-1,2
0,972	-19,4	-2,1
0,9725	-16,8	-2,1
0,973	-12,3	-1,3
0,9735	-8,4	-0,4
0,974	-6,8	0,2
0,9745	-7,5	0,4
0,975	-9,8	0,1
0,9755	-13,9	-0,9
0,976	-19,7	-2,6
0,9765	-26,3	-4,6
0,977	-31,9	-6,3
0,9775	-34,7	-7,2
0,978	-34,8	-7,5
0,9785	-32,8	-7,3
0,979	-29,7	-6,8
0,9795	-25,7	-6,0
0,98	-21,9	-5,1
0,9805	-20,5	-4,7
0,981	-21,9	-5,0
0,9815	-24,8	-5,7
0,982	-26,5	-6,3
0,9825	-25,8	-6,2
0,983	-22,9	-5,5
0,9835	-18,1	-4,0
0,984	-11,5	-1,8
0,9845	-3,5	1,0
0,985	4,8	3,8
0,9855	11,3	5,4
0,986	14,7	5,5
0,9865	14,8	4,2
0,987	12,2	2,2
0,9875	7,3	-0,1
0,988	1,1	-2,2
0,9885	-3,9	-3,4
0,989	-5,3	-3,1
0,9895	-2,3	-1,3
0,99	3,1	0,8
0,9905	8,3	2,7
0,991	11,5	3,8
0,9915	12,2	4,0
0,992	9,5	3,1
0,9925	3,7	0,8
0,993	-4,5	-2,1
0,9935	-13,0	-4,8
0,994	-19,8	-6,4
0,9945	-23,8	-6,7
0,995	-24,9	-5,8
0,9955	-23,4	-4,1
0,996	-19,5	-2,2
0,9965	-13,5	-0,6
0,997	-7,2	-0,0
0,9975	-2,4	-0,6
0,998	0,4	-2,1
0,9985	1,8	-3,7
0,999	2,6	-4,6
0,9995	2,8	-4,7
1	2,9	-4,0
1,0005	3,9	-2,7
1,001	6,7	-1,0
1,0015	10,7	1,2
1,002	13,8	3,4
1,0025	14,2	5,4
1,003	11,9	7,1
1,0035	8,1	8,6
1,004	3,6	9,3
1,0045	-1,1	8,9
1,005	-5,1	7,6
1,0055	-7,1	6,3
1,006	-6,4	5,7
1,0065	-4,0	6,3
1,007	-1,5	7,4
1,0075	0,0	8,5
1,008	0,3	9,2
1,0085	-1,5	9,2
1,009	-6,2	8,4
1,0095	-13,9	7,1
1,01	-22,8	5,9
1,0105	-30,6	5,3
1,011	-35,3	5,4
1,0115	-36,4	6,1
1,012	-34,3	7,2
1,0125	-29,3	8,6
1,013	-22,3	10,3
1,0135	-15,3	11,4
1,014	-11,3	11,3
1,0145	-10,9	9,8
1,015	-12,7	7,8
1,0155	-14,7	5,9
1,016	-15,7	4,3
1,0165	-15,6	3,0
1,017	-14,0	2,1
1,0175	-10,3	1,8
1,018	-5,2	2,2
1,0185	-0,7	2,7
1,019	1,0	2,7
1,0195	-0,8	1,7
1,02	-5,5	-0,1
1,0205	-11,7	-2,1
1,021	-18,4	-3,8
1,0215	-24,4	-5,1
1,022	-27,7	-5,4
1,0225	-26,7	-4,8
1,023	-21,7	-3,3
1,0235	-14,6	-1,7
1,024	-7,5	0,2
1,0245	-1,5	2,1
1,025	2,2	4,0
1,0255	2,6	5,1
1,026	-0,5	4,8
1,0265	-6,1	3,2
1,027	-11,3	1,2
1,0275	-14,0	-0,2
1,028	-13,6	-0,6
1,0285	-11,0	-0,2
1,029	-7,5	0,9
1,0295	-4,0	2,5
1,03	-1,7	4,3
1,0305	-2,4	5,4
1,031	-6,9	5,3
1,0315	-14,0	4,1
1,032	-21,4	2,8
1,0325	-27,0	2,1
1,033	-30,2	2,4
1,0335	-30,7	3,4
1,034	-28,4	5,1
1,0345	-23,9	7,4
1,035	-18,8	10,0
1,0355	-14,8	11,9
1,036	-13,0	12,6
1,0365	-13,1	12,1
1,037	-14,5	11,0
1,0375	-16,8	9,6
1,038	-19,7	7,9
1,0385	-21,8	6,5
1,039	-20,9	5,6
1,0395	-16,3	5,5
1,04	-9,3	5,7
1,0405	-2,1	5,6
1,041	3,9	4,9
1,0415	8,1	3,8
1,042	9,3	2,5
1,0425	6,3	0,7
1,043	-0,4	-1,5
1,0435	-8,9	-3,4
1,044	-16,3	-4,6
1,0445	-20,5	-4,6
1,045	-21,2	-3,5
1,0455	-19,0	-1,7
1,046	-14,8	0,3
1,0465	-10,2	2,1
1,047	-7,3	3,0
1,0475	-8,1	2,7
1,048	-12,1	1,3
1,0485	-17,3	-0,9
1,049	-21,2	-3,1
1,0495	-22,9	-5,1
1,05	-22,4	-6,4
1,0505	-19,6	-6,5
1,051	-14,8	-5,2
1,0515	-9,2	-2,5
1,052	-4,7	0,5
1,0525	-3,2	2,9
1,053	-4,8	4,2
1,0535	-8,4	4,0
1,054	-12,7	2,8
1,0545	-16,7	1,1
1,055	-19,6	0,0
1,0555	-19,7	0,0
1,056	-15,8	0,8
1,0565	-9,0	1,9
1,057	-1,8	2,8
1,0575	3,7	3,3
1,058	6,6	3,0
1,0585	6,3	1,7
1,059	2,7	-0,7
1,0595	-3,7	-3,8
1,06	-10,8	-6,7
1,0605	-15,9	-8,6
1,061	-17,0	-9,3
1,0615	-13,8	-9,1
1,062	-7,5	-8,3
1,0625	0,6	-7,1
1,063	9,0	-5,6
1,0635	15,5	-4,4
1,064	18,0	-4,1
1,0645	15,8	-4,5
1,065	10,5	-5,4
1,0655	4,8	-6,2
1,066	1,0	-6,4
1,0665	0,4	-6,0
1,067	3,7	-5,0
1,0675	10,3	-3,7
1,068	18,7	-2,3
1,0685	26,4	-1,2
1,069	30,4	-0,8
1,0695	29,2	-1,2
1,07	23,2	-2,3
1,0705	13,6	-3,8
1,071	2,1	-5,6
1,0715	-9,3	-7,1
1,072	-17,7	-7,9
1,0725	-20,8	-7,7
1,073	-18,4	-6,8
1,0735	-12,8	-5,8
1,074	-6,4	-4,7
1,0745	-0,7	-3,4
1,075	3,0	-2,1
1,0755	3,4	-1,4
1,076	0,1	-1,4
1,0765	-6,3	-2,2
1,077	-12,8	-2,8
1,0775	-17,1	-3,0
1,078	-18,1	-2,7
1,0785	-16,1	-1,8
1,079	-11,9	-0,7
1,0795	-6,2	0,5
1,08	-0,3	1,0
1,0805	3,5	0,5
1,081	3,8	-0,9
1,0815	1,4	-2,7
1,082	-1,9	-4,2
1,0825	-4,7	-5,0
1,083	-6,6	-5,1
1,0835	-6,8	-4,4
1,084	-4,6	-3,0
1,0845	0,6	-1,7
1,085	7,6	-1,2
1,0855	14,2	-1,9
1,086	18,2	-3,6
1,0865	18,8	-5,7
1,087	16,5	-7,9
1,0875	11,9	-9,9
1,088	5,7	-11,7
1,0885	-0,2	-12,9
1,089	-3,5	-13,1
1,0895	-3,3	-12,4
1,09	-0,7	-11,4
1,0905	1,9	-10,6
1,091	3,1	-10,3
1,0915	2,7	-10,5
1,092	0,5	-11,3
1,0925	-3,2	-12,8
1,093	-8,0	-15,0
1,0935	-12,2	-17,3
1,094	-13,9	-18,9
1,0945	-12,8	-19,4
1,095	-9,3	-18,4
1,0955	-4,6	-16,2
1,096	0,4	-12,9
1,0965	4,9	-8,9
1,097	6,8	-4,9
1,0975	4,7	-1,5
1,098	-0,8	0,8
1,0985	-7,5	2,1
1,099	-13,1	2,2
1,0995	-16,9	1,3
1,1	-18,6	0,1
1,1005	-17,6	0,1
1,101	-13,9	1,8
1,1015	-8,3	4,9
1,102	-3,0	7,9
1,1025	0,0	9,5
1,103	0,3	9,3
1,1035	-1,6	7,5
1,104	-4,7	4,9
1,1045	-8,5	1,9
1,105	-12,2	-1,0
1,1055	-13,6	-3,1
1,106	-12,0	-3,9
1,1065	-8,2	-3,9
1,107	-3,9	-3,6
1,1075	-0,6	-3,4
1,108	1,2	-3,5
1,1085	0,7	-3,9
1,109	-3,0	-4,5
1,1095	-9,7	-5,3
1,11	-17,9	-6,3
1,1105	-25,3	-7,1
1,111	-30,7	-7,5
1,1115	-34,4	-7,7
1,112	-36,8	-7,6
1,1125	-37,4	-7,3
1,113	-35,8	-6,5
1,1135	-33,0	-5,3
1,114	-31,8	-4,2
1,1145	-32,9	-4,1
1,115	-35,3	-5,0
1,1155	-36,9	-6,5
1,116	-36,4	-7,6
1,1165	-34,1	-7,8
1,117	-29,7	-6,8
1,1175	-23,2	-4,7
1,118	-14,6	-2,3
1,1185	-5,3	-0,3
1,119	2,4	0,6
1,1195	6,5	0,1
1,12	6,6	-1,5
1,1205	3,0	-3,8
1,121	-3,2	-6,1
1,1215	-10,4	-8,1
1,122	-16,0	-9,3
1,1225	-17,5	-9,4
1,123	-15,1	-8,6
1,1235	-10,8	-7,4
1,124	-7,3	-6,2
1,1245	-5,5	-4,8
1,125	-6,2	-3,5
1,1255	-9,8	-2,9
1,126	-16,1	-3,6
1,1265	-24,0	-5,4
1,127	-31,1	-7,5
1,1275	-35,7	-9,2
1,128	-37,1	-9,8
1,1285	-35,9	-9,5
1,129	-32,5	-8,4
1,1295	-27,7	-6,9
1,13	-22,8	-5,5
1,1305	-20,2	-4,8
1,131	-21,2	-5,3
1,1315	-24,6	-6,5
1,132	-28,3	-7,7
1,1325	-30,7	-8,4
1,133	-31,4	-8,5
1,1335	-30,3	-8,0
1,134	-26,8	-6,9
1,1345	-20,7	-4,9
1,135	-13,2	-2,5
1,1355	-6,7	-0,5
1,136	-3,1	0,7
1,1365	-3,1	1,2
1,137	-6,2	1,1
1,1375	-11,6	0,6
1,138	-18,2	-0,5
1,1385	-23,7	-1,8
1,139	-25,5	-2,5
1,1395	-22,7	-2,4
1,14	-16,6	-1,9
1,1405	-10,0	-1,6
1,141	-4,4	-1,7
1,1415	-0,8	-2,1
1,142	-0,1	-2,8
1,1425	-2,9	-3,7
1,143	-8,8	-4,4
1,1435	-15,8	-4,8
1,144	-21,3	-4,7
1,1445	-24,0	-4,0
1,145	-23,9	-2,8
1,1455	-21,8	-1,2
1,146	-18,7	0,9
1,1465	-15,7	3,2
1,147	-14,5	5,0
1,1475	-16,2	5,4
1,148	-20,0	4,4
1,1485	-24,1	2,7
1,149	-27,0	1,2
1,1495	-28,4	0,7
1,15	-28,4	1,2
1,1505	-26,3	2,4
1,151	-21,5	4,1
1,1515	-14,3	5,8
1,152	-6,6	7,1
1,1525	-0,6	7,7
1,153	2,4	7,2
1,1535	2,3	5,6
1,154	-0,4	3,4
1,1545	-5,5	1,0
1,155	-11,6	-1,0
1,1555	-16,5	-1,9
1,156	-18,6	-1,8
1,1565	-18,3	-0,8
1,157	-17,6	0,3
1,1575	-17,1	1,6
1,158	-16,5	2,6
1,1585	-15,9	2,9
1,159	-16,6	2,1
1,1595	-19,6	0,4
1,16	-24,8	-1,3
1,1605	-30,1	-2,4
1,161	-33,3	-2,5
1,1615	-33,3	-1,7
1,162	-30,2	-0,5
1,1625	-24,4	1,2
1,163	-17,2	3,2
1,1635	-10,7	5,0
1,164	-7,4	5,7
1,1645	-7,7	5,1
1,165	-10,1	3,8
1,1655	-12,2	2,5
1,166	-12,9	1,3
1,1665	-12,3	0,2
1,167	-9,7	-0,5
1,1675	-4,2	-0,4
1,168	3,9	0,4
1,1685	12,8	1,5
1,169	19,8	2,2
1,1695	23,1	2,2
1,17	22,9	1,4
1,1705	20,0	0,1
1,171	15,1	-1,5
1,1715	9,1	-3,1
1,172	4,1	-4,1
1,1725	2,3	-4,0
1,173	3,8	-3,0
1,1735	7,0	-1,7
1,174	9,4	-0,8
1,1745	10,0	-0,2
1,175	8,1	0,1
1,1755	3,0	0,1
1,176	-5,3	0,0
1,1765	-15,6	-0,1
1,177	-25,1	0,1
1,1775	-31,5	1,1
1,178	-34,1	2,9
1,1785	-33,6	5,2
1,179	-30,9	7,6
1,1795	-26,3	9,7
1,18	-21,2	11,2
1,1805	-17,6	11,6
1,181	-17,2	10,9
1,1815	-19,3	9,6
1,182	-22,4	8,2
1,1825	-25,3	6,9
1,183	-27,6	5,7
1,1835	-28,5	4,6
1,184	-26,3	4,1
1,1845	-20,5	4,0
1,185	-11,9	4,3
1,1855	-3,6	4,4
1,186	1,5	3,8
1,1865	2,4	2,3
1,187	-0,7	0,2
1,1875	-6,6	-2,1
1,188	-14,2	-4,0
1,1885	-21,4	-5,1
1,189	-25,5	-5,2
1,1895	-25,7	-4,7
1,19	-22,7	-4,0
1,1905	-18,8	-3,5
1,191	-15,0	-3,3
1,1915	-11,7	-3,6
1,192	-9,5	-4,3
1,1925	-9,1	-5,7
1,193	-10,6	-7,4
1,1935	-12,7	-8,8
1,194	-13,8	-9,0
1,1945	-13,5	-7,5
1,195	-12,4	-4,8
1,1955	-11,0	-1,7
1,196	-9,7	1,4
1,1965	-8,9	3,8
1,197	-10,2	4,8
1,1975	-14,5	4,4
1,198	-21,2	3,3
1,1985	-28,1	2,5
1,199	-33,3	2,6
1,1995	-36,1	3,3
1,2	-36,3	4,1
1,2005	-33,5	5,0
1,201	-27,9	6,4
1,2015	-20,2	7,9
1,202	-12,3	8,9
1,2025	-6,1	8,4
1,203	-2,4	6,8
1,2035	-1,3	4,3
1,204	-2,3	1,7
1,2045	-5,1	-0,6
1,205	-8,7	-2,3
1,2055	-10,9	-2,7
1,206	-10,1	-1,8
1,2065	-6,8	-0,1
1,207	-2,8	1,7
1,2075	0,3	3,1
1,208	1,8	4,2
1,2085	1,0	5,0
1,209	-2,8	5,6
1,2095	-9,7	5,6
1,21	-18,7	5,1
1,2105	-26,9	4,5
1,211	-31,8	4,0
1,2115	-32,7	3,6
1,212	-30,3	3,3
1,2125	-25,5	3,3
1,213	-19,6	3,5
1,2135	-14,5	3,7
1,214	-12,7	3,2
1,2145	-14,7	1,7
1,215	-18,8	-0,3
1,2155	-22,8	-2,3
1,216	-25,1	-3,9
1,2165	-25,8	-5,1
1,217	-24,6	-5,8
1,2175	-21,1	-6,1
1,218	-15,3	-5,8
1,2185	-8,7	-5,4
1,219	-3,8	-5,2
1,2195	-1,9	-5,5
1,22	-2,7	-6,5
1,2205	-5,3	-8,1
1,221	-8,9	-10,2
1,2215	-12,8	-12,5
1,222	-14,9	-14,1
1,2225	-13,9	-14,3
1,223	-10,1	-13,2
1,2235	-5,4	-11,3
1,224	-2,3	-9,3
1,2245	-1,4	-7,3
1,225	-2,6	-5,4
1,2255	-5,8	-4,0
1,226	-11,0	-3,3
1,2265	-18,2	-3,2
1,227	-26,0	-2,6
1,2275	-32,5	-0,8
1,228	-36,6	2,3
1,2285	-37,7	6,4
1,229	-36,4	10,4
1,2295	-33,2	13,7
1,23	-29,5	15,3
1,2305	-27,8	14,8
1,231	-29,0	12,6
1,2315	-32,3	9,6
1,232	-35,9	7,1
1,2325	-38,3	5,5
1,233	-39,1	4,3
1,2335	-37,6	3,5
1,234	-33,2	3,0
1,2345	-25,5	3,1
1,235	-15,8	3,8
1,2355	-6,8	4,3
1,236	-1,2	4,2
1,2365	0,6	3,3
1,237	-0,4	1,7
1,2375	-2,6	-0,2
1,238	-4,9	-2,6
1,2385	-5,8	-4,8
1,239	-3,5	-6,0
1,2395	2,1	-6,1
1,24	9,0	-5,2
1,2405	14,8	-4,1
1,241	17,9	-3,4
1,2415	18,5	-3,3
1,242	16,5	-4,0
1,2425	12,4	-5,5
1,243	6,3	-7,3
1,2435	-0,3	-8,4
1,244	-5,6	-8,3
1,2445	-8,7	-7,0
1,245	-9,7	-4,9
1,2455	-9,6	-2,2
1,246	-9,1	1,1
1,2465	-9,2	4,3
1,247	-11,5	6,1
1,2475	-17,0	5,7
1,248	-24,6	3,3
1,2485	-31,5	0,2
1,249	-35,8	-2,5
1,2495	-37,0	-4,3
1,25	-36,1	-5,4
1,2505	-33,3	-5,6
1,251	-28,3	-4,8
1,2515	-20,8	-3,2
1,252	-12,5	-1,4
1,2525	-5,7	-0,1
1,253	-2,1	0,2
1,2535	-1,8	-0,6
1,254	-4,0	-2,1
1,2545	-7,6	-4,1
1,255	-11,0	-6,2
1,2555	-12,0	-7,7
1,256	-9,3	-7,9
1,2565	-4,1	-6,9
1,257	1,3	-4,8
1,2575	4,7	-2,2
1,258	5,4	0,6
1,2585	3,5	2,5
1,259	-1,2	3,0
1,2595	-8,2	2,1
1,26	-15,6	0,3
1,2605	-20,8	-1,4
1,261	-22,0	-2,4
1,2615	-19,4	-2,4
1,262	-14,4	-1,7
1,2625	-8,2	-0,4
1,263	-1,7	0,8
1,2635	3,6	1,3
1,264	5,3	0,6
1,2645	2,5	-1,3
1,265	-3,1	-3,4
1,2655	-8,7	-4,6
1,266	-12,4	-4,9
1,2665	-13,7	-4,7
1,267	-12,2	-4,6
1,2675	-7,7	-4,6
1,268	-0,7	-4,4
1,2685	7,5	-4,2
1,269	14,6	-4,3
1,2695	18,9	-5,2
1,27	19,8	-6,7
1,2705	17,7	-8,4
1,271	13,0	-9,8
1,2715	7,1	-10,5
1,272	2,1	-10,1
1,2725	0,1	-8,4
1,273	1,1	-6,0
1,2735	3,1	-3,5
1,274	3,7	-1,4
1,2745	2,3	-0,1
1,275	-1,2	0,3
1,2755	-6,8	-0,5
1,276	-14,9	-2,3
1,2765	-24,4	-4,7
1,277	-32,8	-6,9
1,2775	-37,2	-8,3
1,278	-36,8	-8,8
1,2785	-32,4	-8,5
1,279	-25,9	-7,5
1,2795	-18,8	-5,7
1,28	-13,0	-3,6
1,2805	-10,9	-2,0
1,281	-13,6	-1,6
1,2815	-19,5	-2,3
1,282	-25,9	-3,4
1,2825	-30,4	-4,4
1,283	-33,0	-4,9
1,2835	-33,8	-4,6
1,284	-32,7	-3,6
1,2845	-29,4	-2,1
1,285	-24,5	-0,6
1,2855	-19,8	0,3
1,286	-17,2	0,2
1,2865	-17,4	-1,3
1,287	-19,9	-3,5
1,2875	-23,5	-5,9
1,288	-27,3	-7,8
1,2885	-29,8	-8,7
1,289	-28,8	-8,3
1,2895	-23,7	-7,1
1,29	-16,2	-5,4
1,2905	-8,6	-3,8
1,291	-2,8	-2,4
1,2915	0,5	-1,0
1,292	0,5	-0,3
1,2925	-3,3	-0,6
1,293	-10,0	-1,8
1,2935	-17,0	-3,2
1,294	-21,1	-3,8
1,2945	-21,0	-3,4
1,295	-17,7	-2,4
1,2955	-12,7	-1,3
1,296	-6,7	-0,3
1,2965	-0,5	0,5
1,297	4,1	0,5
1,2975	5,1	-0,8
1,298	2,6	-3,1
1,2985	-1,7	-5,5
1,299	-5,3	-7,4
1,2995	-7,5	-8,8
1,3	-8,2	-9,7
1,3005	-7,0	-10,0
1,301	-3,8	-9,3
1,3015	1,2	-7,6
1,302	6,3	-5,7
1,3025	9,5	-4,5
1,303	9,6	-4,2
1,3035	6,5	-4,9
1,304	1,3	-6,2
1,3045	-5,3	-7,6
1,305	-12,1	-8,4
1,3055	-17,3	-8,1
1,306	-19,8	-6,8
1,3065	-19,8	-5,2
1,307	-19,1	-3,8
1,3075	-18,9	-3,1
1,308	-20,0	-2,8
1,3085	-22,6	-2,9
1,309	-27,4	-3,8
1,3095	-33,9	-5,5
1,31	-40,8	-7,4
1,3105	-45,2	-8,6
1,311	-45,1	-8,7
1,3115	-40,3	-8,0
1,312	-32,3	-7,2
1,3125	-22,7	-6,3
1,313	-12,9	-5,5
1,3135	-5,2	-5,2
1,314	-2,2	-5,9
1,3145	-4,4	-7,6
1,315	-9,8	-9,7
1,3155	-15,6	-11,4
1,316	-19,8	-12,5
1,3165	-21,9	-13,3
1,317	-21,6	-13,4
1,3175	-18,1	-12,8
1,318	-11,9	-11,1
1,3185	-4,6	-9,1
1,319	1,1	-7,4
1,3195	3,8	-6,6
1,32	3,4	-6,8
1,3205	0,7	-7,6
1,321	-3,5	-8,8
1,3215	-7,9	-10,2
1,322	-10,5	-11,3
1,3225	-9,8	-11,8
1,323	-6,2	-11,4
1,3235	-1,5	-10,5
1,324	2,7	-9,7
1,3245	5,9	-9,3
1,325	8,0	-9,4
1,3255	7,6	-10,3
1,326	4,0	-11,5
1,3265	-2,8	-12,6
1,327	-10,4	-12,9
1,3275	-16,2	-12,1
1,328	-18,8	-10,3
1,3285	-18,6	-8,2
1,329	-16,4	-6,3
1,3295	-12,5	-4,7
1,33	-8,3	-3,3
1,3305	-6,0	-2,3
1,331	-6,9	-1,8
1,3315	-10,4	-1,6
1,332	-14,5	-1,7
1,3325	-17,4	-1,8
1,333	-18,7	-1,9
1,3335	-17,8	-2,1
1,334	-14,3	-2,0
1,3345	-8,0	-1,8
1,335	0,0	-1,3
1,3355	7,3	-1,3
1,336	11,2	-2,3
1,3365	10,2	-4,1
1,337	4,3	-6,4
1,3375	-5,0	-8,7
1,338	-16,7	-10,7
1,3385	-28,8	-12,0
1,339	-38,7	-12,3
1,3395	-45,0	-11,6
1,34	-48,2	-10,4
1,3405	-49,6	-9,4
1,341	-50,8	-9,1
1,3415	-52,0	-9,3
1,342	-53,8	-10,2
1,3425	-56,3	-11,7
1,343	-59,2	-13,6
1,3435	-61,3	-15,2
1,344	-60,8	-15,6
1,3445	-56,4	-14,9
1,345	-48,5	-13,9
1,3455	-38,1	-13,5
1,346	-25,8	-13,5
1,3465	-12,8	-13,6
1,347	-1,4	-13,7
1,3475	6,0	-14,1
1,348	9,2	-14,8
1,3485	10,0	-15,5
1,349	10,7	-15,8
1,3495	11,8	-15,7
1,35	13,6	-14,7
1,3505	16,1	-12,5
1,351	19,7	-9,1
1,3515	24,1	-4,9
1,352	28,2	-1,2
1,3525	30,6	1,2
1,353	30,8	1,8
1,3535	28,9	1,2
1,354	25,2	0,2
1,3545	19,5	-1,1
1,355	12,7	-2,3
1,3555	6,9	-3,1
1,356	3,9	-2,8
1,3565	3,9	-1,9
1,357	5,5	-0,7
1,3575	7,3	0,3
1,358	8,3	0,6
1,3585	7,7	-0,3
1,359	4,7	-2,7
1,3595	-0,4	-6,4
1,36	-6,3	-10,7
1,3605	-10,4	-14,6
1,361	-10,7	-17,4
1,3615	-6,9	-18,9
1,362	-0,4	-19,3
1,3625	7,6	-18,8
1,363	16,2	-17,7
1,3635	23,7	-16,6
1,364	28,0	-16,3
1,3645	28,3	-17,1
1,365	25,4	-18,6
1,3655	21,5	-20,1
1,366	17,8	-20,7
1,3665	14,5	-20,4
1,367	12,4	-19,0
1,3675	12,1	-16,3
1,368	13,6	-12,8
1,3685	15,3	-9,0
1,369	15,2	-6,0
1,3695	12,1	-4,3
1,37	6,1	-4,0
1,3705	-1,7	-4,6
1,371	-10,2	-5,4
1,3715	-18,4	-5,9
1,372	-24,3	-5,4
1,3725	-25,9	-3,9
1,373	-23,3	-2,3
1,3735	-18,3	-1,3
1,374	-13,4	-1,4
1,3745	-10,0	-2,5
1,375	-8,9	-4,0
1,3755	-10,7	-5,7
1,376	-15,3	-7,8
1,3765	-21,8	-10,3
1,377	-28,0	-12,4
1,3775	-31,3	-13,8
1,378	-30,6	-14,2
1,3785	-26,5	-13,9
1,379	-20,3	-13,2
1,3795	-12,6	-12,3
1,38	-4,1	-11,3
1,3805	3,0	-10,9
1,381	7,0	-11,3
1,3815	7,9	-12,1
1,382	7,0	-12,4
1,3825	5,5	-12,2
1,383	3,8	-11,5
1,3835	2,7	-10,5
1,384	3,3	-9,3
1,3845	6,1	-8,1
1,385	10,5	-7,0
1,3855	14,7	-6,8
1,386	16,9	-7,8
1,3865	16,8	-9,7
1,387	14,7	-11,8
1,3875	10,8	-13,9
1,388	5,2	-15,8
1,3885	-1,6	-17,3
1,389	-7,6	-18,2
1,3895	-11,1	-18,1
1,39	-12,3	-17,3
1,3905	-12,4	-16,1
1,391	-12,7	-14,9
1,3915	-13,5	-14,2
1,392	-15,7	-14,3
1,3925	-19,7	-15,5
1,393	-25,7	-17,5
1,3935	-32,4	-19,4
1,394	-37,8	-20,2
1,3945	-40,5	-19,5
1,395	-40,0	-17,6
1,3955	-36,7	-15,2
1,396	-31,0	-12,9
1,3965	-23,8	-11,1
1,397	-17,6	-9,8
1,3975	-15,2	-9,2
1,398	-17,3	-9,5
1,3985	-22,1	-10,3
1,399	-27,0	-11,3
1,3995	-30,5	-11,8
1,4	-32,3	-11,4
1,4005	-31,8	-9,7
1,401	-29,1	-6,8
1,4015	-24,8	-3,0
1,402	-21,0	0,3
1,4025	-19,4	2,5
1,403	-20,3	3,2
1,4035	-22,5	2,8
1,404	-25,1	1,3
1,4045	-27,8	-0,8
1,405	-29,9	-3,3
1,4055	-30,2	-5,3
1,406	-27,5	-6,4
1,4065	-22,5	-6,6
1,407	-16,7	-6,2
1,4075	-11,5	-5,7
1,408	-7,5	-5,0
1,4085	-5,5	-4,6
1,409	-6,8	-4,6
1,4095	-11,6	-5,4
1,41	-18,6	-6,7
1,4105	-25,0	-8,1
1,411	-28,3	-8,8
1,4115	-28,0	-8,6
1,412	-24,7	-7,6
1,4125	-19,2	-6,0
1,413	-12,0	-4,1
1,4135	-4,9	-2,3
1,414	-0,3	-1,6
1,4145	0,1	-2,1
1,415	-2,9	-3,5
1,4155	-7,5	-5,2
1,416	-11,8	-6,7
1,4165	-14,6	-7,8
1,417	-14,9	-8,3
1,4175	-12,1	-8,0
1,418	-6,5	-7,0
1,4185	0,2	-5,5
1,419	5,4	-4,2
1,4195	7,8	-3,8
1,42	7,3	-4,3
1,4205	5,0	-5,7
1,421	2,0	-7,6
1,4215	-1,0	-9,5
1,422	-2,0	-10,8
1,4225	0,3	-11,3
1,423	5,3	-10,9
1,4235	11,1	-10,0
1,424	15,3	-8,8
1,4245	17,1	-7,8
1,425	16,4	-6,8
1,4255	13,1	-6,4
1,426	7,6	-7,1
1,4265	0,9	-8,8
1,427	-4,5	-11,0
1,4275	-5,8	-12,6
1,428	-2,7	-13,1
1,4285	3,4	-12,7
1,429	10,5	-11,7
1,4295	17,2	-10,1
1,43	22,0	-8,2
1,4305	22,8	-6,6
1,431	18,7	-5,8
1,4315	10,3	-5,6
1,432	0,1	-5,5
1,4325	-10,0	-5,2
1,433	-18,9	-4,3
1,4335	-24,9	-3,1
1,434	-26,3	-1,5
1,4345	-22,8	0,4
1,435	-15,7	2,3
1,4355	-8,6	3,6
1,436	-4,5	3,8
1,4365	-4,3	2,8
1,437	-6,8	0,9
1,4375	-11,0	-1,2
1,438	-15,8	-2,9
1,4385	-19,9	-3,4
1,439	-21,8	-2,5
1,4395	-21,0	-0,3
1,44	-18,6	2,1
1,4405	-16,0	3,8
1,441	-14,3	4,3
1,4415	-13,3	3,8
1,442	-13,5	2,3
1,4425	-15,3	0,3
1,443	-18,8	-2,1
1,4435	-22,8	-4,3
1,444	-24,5	-5,4
1,4445	-22,3	-5,3
1,445	-16,2	-3,9
1,4455	-7,3	-1,9
1,446	2,8	0,2
1,4465	13,1	1,9
1,447	21,5	2,4
1,4475	25,6	1,5
1,448	25,3	-0,5
1,4485	22,5	-2,8
1,449	19,8	-4,6
1,4495	18,5	-5,6
1,45	18,9	-5,8
1,4505	21,3	-5,0
1,451	25,6	-3,3
1,4515	31,0	-0,6
1,452	35,7	2,4
1,4525	37,1	5,0
1,453	34,2	6,6
1,4535	27,8	7,4
1,454	19,5	7,5
1,4545	10,4	7,1
1,455	2,1	6,4
1,4555	-3,6	5,6
1,456	-5,2	5,0
1,4565	-3,2	4,6
1,457	0,6	4,4
1,4575	4,0	4,4
1,458	6,2	4,6
1,4585	6,4	4,7
1,459	3,9	4,1
1,4595	-1,4	2,6
1,46	-8,1	0,4
1,4605	-13,7	-1,8
1,461	-16,1	-3,2
1,4615	-14,9	-3,6
1,462	-11,1	-3,0
1,4625	-5,9	-1,9
1,463	0,3	-0,3
1,4635	6,0	1,2
1,464	9,2	1,8
1,4645	8,7	1,3
1,465	6,0	0,0
1,4655	3,4	-1,3
1,466	2,7	-1,9
1,4665	3,9	-1,7
1,467	7,2	-0,5
1,4675	12,7	1,6
1,468	20,1	3,9
1,4685	27,8	5,7
1,469	33,3	6,5
1,4695	35,0	6,2
1,47	33,0	5,3
1,4705	28,2	4,2
1,471	21,4	3,1
1,4715	13,7	2,0
1,472	7,1	1,5
1,4725	3,7	1,8
1,473	4,0	2,8
1,4735	6,7	4,0
1,474	9,8	5,0
1,4745	12,1	5,7
1,475	12,8	6,1
1,4755	10,9	5,8
1,476	6,2	4,7
1,4765	-0,8	2,8
1,477	-7,9	0,8
1,4775	-12,4	-0,2
1,478	-13,4	0,2
1,4785	-11,6	1,6
1,479	-7,6	3,4
1,4795	-1,9	5,1
1,48	5,0	6,1
1,4805	11,1	6,3
1,481	14,2	5,5
1,4815	14,3	4,1
1,482	13,2	2,7
1,4825	12,5	1,8
1,483	12,8	1,5
1,4835	14,4	1,5
1,484	18,0	2,1
1,4845	23,8	3,2
1,485	30,8	4,8
1,4855	36,4	6,3
1,486	38,1	6,9
1,4865	35,5	6,4
1,487	29,9	5,3
1,4875	22,5	4,0
1,488	14,3	2,8
1,4885	6,8	2,2
1,489	2,3	2,2
1,4895	1,7	2,8
1,49	4,3	3,7
1,4905	8,1	4,3
1,491	11,5	4,6
1,4915	13,8	4,7
1,492	14,2	4,5
1,4925	12,3	3,7
1,493	8,4	2,1
1,4935	4,0	0,0
1,494	1,5	-1,6
1,4945	2,8	-2,1
1,495	7,8	-1,4
1,4955	15,3	-0,0
1,496	23,8	1,6
1,4965	31,9	3,3
1,497	37,4	4,5
1,4975	38,0	5,0
1,498	33,5	4,7
1,4985	25,7	4,3
1,499	17,1	4,2
1,4995	9,4	4,3
1,5	3,5	4,5
1,5005	0,4	5,2
1,501	0,8	6,6
1,5015	3,6	8,9
1,502	6,1	11,4
1,5025	6,0	13,5
1,503	2,9	14,5
1,5035	-1,9	14,3
1,504	-7,7	13,3
1,5045	-14,6	12,0
1,505	-22,7	10,9
1,5055	-30,4	10,5
1,506	-35,3	10,9
1,5065	-36,5	11,6
1,507	-34,8	12,1
1,5075	-31,8	12,0
1,508	-28,4	11,6
1,5085	-25,6	10,6
1,509	-24,3	9,0
1,5095	-25,4	6,7
1,51	-28,0	3,9
1,5105	-29,9	1,2
1,511	-28,4	-0,8
1,5115	-23,1	-1,6
1,512	-15,2	-1,3
1,5125	-6,3	-0,2
1,513	2,2	1,3
1,5135	9,1	2,5
1,514	13,0	2,5
1,5145	13,4	1,0
1,515	12,0	-1,4
1,5155	10,8	-3,5
1,516	10,8	-4,6
1,5165	11,8	-4,3
1,517	13,9	-2,6
1,5175	17,9	0,3
1,518	23,7	4,0
1,5185	29,7	7,6
1,519	33,4	10,4
1,5195	33,8	11,9
1,52	31,9	12,0
1,5205	28,8	10,9
1,521	24,8	9,2
1,5215	20,2	7,2
1,522	16,5	5,7
1,5225	16,2	5,3
1,523	20,6	5,8
1,5235	28,4	6,6
1,524	36,8	6,8
1,5245	43,6	6,3
1,525	47,6	5,7
1,5255	47,4	5,0
1,526	42,2	4,3
1,5265	32,5	3,4
1,527	20,5	2,6
1,5275	9,9	2,3
1,528	2,7	2,4
1,5285	-1,1	2,5
1,529	-2,3	2,7
1,5295	-1,5	3,2
1,53	0,8	4,1
1,5305	2,8	5,1
1,531	2,5	6,0
1,5315	-0,0	6,7
1,532	-3,4	7,4
1,5325	-6,0	8,3
1,533	-7,3	9,3
1,5335	-6,3	10,0
1,534	-2,1	10,8
1,5345	5,7	11,9
1,535	15,8	13,4
1,5355	25,3	14,5
1,536	31,8	14,6
1,5365	34,8	13,6
1,537	34,8	11,9
1,5375	33,0	9,8
1,538	30,2	7,7
1,5385	28,1	5,5
1,539	28,8	3,8
1,5395	33,6	3,1
1,54	41,0	3,2
1,5405	48,4	3,5
1,541	54,0	3,7
1,5415	57,0	3,6
1,542	56,9	2,9
1,5425	53,3	1,6
1,543	46,8	-0,4
1,5435	38,8	-2,5
1,544	32,2	-3,8
1,5445	28,7	-3,4
1,545	28,3	-1,9
1,5455	29,7	0,1
1,546	31,4	2,2
1,5465	32,5	4,4
1,547	31,6	6,6
1,5475	26,7	8,1
1,548	18,4	8,2
1,5485	9,1	7,3
1,549	1,9	6,1
1,5495	-2,3	5,4
1,55	-3,6	5,4
1,5505	-1,8	6,3
1,551	3,6	7,4
1,5515	12,1	8,5
1,552	21,3	9,3
1,5525	28,3	9,1
1,553	31,6	8,0
1,5535	31,9	6,4
1,554	30,3	4,7
1,5545	27,3	3,0
1,555	23,5	1,5
1,5555	20,8	0,9
1,556	21,3	1,3
1,5565	24,8	2,8
1,557	29,6	4,6
1,5575	33,6	6,1
1,558	35,9	7,0
1,5585	35,9	7,0
1,559	33,1	5,8
1,5595	27,3	3,5
1,56	19,3	1,0
1,5605	11,7	-0,9
1,561	7,5	-1,5
1,5615	8,1	-0,7
1,562	12,8	1,0
1,5625	19,9	2,9
1,563	27,9	4,6
1,5635	35,0	5,3
1,564	38,8	4,8
1,5645	38,5	3,1
1,565	35,0	1,1
1,5655	30,9	-0,1
1,566	27,9	-0,2
1,5665	26,5	0,4
1,567	27,2	1,0
1,5675	30,5	1,5
1,568	36,6	2,0
1,5685	44,0	2,5
1,569	50,3	2,7
1,5695	53,5	2,4
1,57	53,0	2,0
1,5705	49,5	1,6
1,571	43,7	1,3
1,5715	36,7	1,0
1,572	30,5	0,8
1,5725	27,3	1,1
1,573	27,6	1,8
1,5735	29,8	2,4
1,574	31,7	2,9
1,5745	31,9	3,5
1,575	30,3	4,3
1,5755	26,9	5,0
1,576	21,4	5,2
1,5765	13,9	4,6
1,577	6,0	3,4
1,5775	0,2	2,2
1,578	-2,3	1,2
1,5785	-1,7	1,0
1,579	0,7	1,8
1,5795	4,3	3,5
1,58	8,5	5,6
1,5805	11,3	7,0
1,581	10,8	6,9
1,5815	7,0	5,8
1,582	2,0	4,4
1,5825	-1,8	3,4
1,583	-4,0	2,8
1,5835	-4,1	2,6
1,584	-1,5	2,7
1,5845	4,3	2,9
1,585	12,6	3,2
1,5855	20,9	3,2
1,586	26,5	2,8
1,5865	28,3	2,2
1,587	26,8	1,4
1,5875	22,7	0,5
1,588	17,0	-0,7
1,5885	11,3	-1,9
1,589	7,9	-2,5
1,5895	7,8	-2,3
1,59	9,6	-1,2
1,5905	11,2	0,3
1,591	11,2	1,4
1,5915	9,3	1,9
1,592	5,5	1,3
1,5925	-0,3	-0,6
1,593	-7,5	-3,6
1,5935	-14,4	-6,8
1,594	-19,0	-9,1
1,5945	-20,3	-10,2
1,595	-18,8	-9,8
1,5955	-15,8	-8,3
1,596	-12,3	-6,0
1,5965	-8,7	-3,3
1,597	-5,8	-1,4
1,5975	-5,0	-0,9
1,598	-6,1	-1,7
1,5985	-7,7	-3,0
1,599	-7,9	-4,3
1,5995	-6,8	-5,2
1,6	-5,4	-5,9
1,6005	-4,3	-6,2
1,601	-2,9	-5,8
1,6015	-0,7	-4,9
1,602	2,3	-3,9
1,6025	4,8	-3,4
1,603	5,7	-3,3
1,6035	4,7	-3,4
1,604	1,7	-3,5
1,6045	-3,5	-3,8
1,605	-10,0	-4,6
1,6055	-15,2	-5,5
1,606	-16,5	-6,1
1,6065	-13,5	-6,3
1,607	-7,8	-5,9
1,6075	-1,9	-4,8
1,608	2,9	-2,8
1,6085	5,6	-0,2
1,609	5,2	1,9
1,6095	1,6	2,6
1,61	-3,6	1,4
1,6105	-7,4	-0,9
1,611	-7,4	-3,3
1,6115	-3,1	-4,9
1,612	3,8	-5,3
1,6125	10,7	-4,8
1,613	16,4	-3,3
1,6135	20,1	-0,9
1,614	20,0	1,1
1,6145	15,0	1,4
1,615	6,4	0,1
1,6155	-1,8	-2,0
1,616	-6,8	-4,0
1,6165	-8,5	-5,8
1,617	-7,5	-7,4
1,6175	-4,0	-8,3
1,618	1,9	-8,2
1,6185	9,3	-7,3
1,619	16,0	-6,0
1,6195	20,6	-4,7
1,62	23,0	-3,5
1,6205	23,5	-2,6
1,621	21,9	-2,4
1,6215	19,1	-2,9
1,622	16,6	-3,8
1,6225	15,5	-4,6
1,623	15,4	-5,1
1,6235	14,9	-5,1
1,624	13,4	-4,5
1,6245	11,0	-3,3
1,625	8,0	-1,9
1,6255	4,1	-1,4
1,626	-0,5	-2,2
1,6265	-5,4	-4,4
1,627	-9,1	-6,9
1,6275	-9,8	-8,6
1,628	-6,9	-8,6
1,6285	-1,2	-7,0
1,629	5,5	-4,6
1,6295	11,3	-1,8
1,63	14,7	0,9
1,6305	14,2	3,2
1,631	9,0	4,6
1,6315	0,7	5,2
1,632	-7,8	4,9
1,6325	-14,2	4,0
1,633	-17,9	2,5
1,6335	-18,8	0,6
1,634	-16,4	-1,2
1,6345	-10,3	-2,3
1,635	-1,3	-2,5
1,6355	8,1	-2,1
1,636	14,8	-2,0
1,6365	17,4	-2,2
1,637	16,7	-2,6
1,6375	13,8	-2,8
1,638	9,9	-3,2
1,6385	6,4	-3,6
1,639	5,5	-3,7
1,6395	8,3	-3,1
1,64	13,6	-1,9
1,6405	19,2	-0,6
1,641	23,3	0,5
1,6415	25,7	1,3
1,642	26,0	1,4
1,6425	23,4	0,7
1,643	18,0	-0,8
1,6435	10,7	-2,4
1,644	4,2	-3,5
1,6445	0,8	-4,1
1,645	1,1	-4,4
1,6455	4,9	-4,6
1,646	11,2	-4,7
1,6465	18,6	-4,6
1,647	24,9	-4,7
1,6475	27,4	-5,3
1,648	26,2	-6,4
1,6485	23,1	-7,8
1,649	20,9	-8,9
1,6495	20,7	-9,9
1,65	22,1	-10,6
1,6505	25,3	-10,7
1,651	30,2	-10,0
1,6515	36,3	-8,4
1,652	41,9	-6,3
1,6525	44,9	-4,6
1,653	44,3	-3,8
1,6535	40,5	-4,0
1,654	34,6	-5,4
1,6545	27,4	-7,5
1,655	19,9	-10,0
1,6555	14,1	-11,9
1,656	11,7	-12,7
1,6565	12,4	-12,2
1,657	14,6	-11,0
1,6575	15,9	-9,8
1,658	15,6	-8,8
1,6585	13,5	-8,5
1,659	8,5	-9,2
1,6595	0,5	-10,9
1,66	-9,5	-13,1
1,6605	-18,6	-14,9
1,661	-23,9	-15,7
1,6615	-24,5	-15,5
1,662	-20,7	-14,8
1,6625	-13,9	-14,0
1,663	-5,3	-13,2
1,6635	2,9	-12,6
1,664	8,0	-12,3
1,6645	8,9	-12,5
1,665	6,9	-12,9
1,6655	4,6	-13,4
1,666	3,8	-13,9
1,6665	4,7	-14,6
1,667	7,3	-14,7
1,6675	11,6	-13,6
1,668	17,5	-11,2
1,6685	23,7	-8,4
1,669	27,9	-6,5
1,6695	28,2	-6,4
1,67	24,7	-8,3
1,6705	18,8	-11,2
1,671	12,0	-14,4
1,6715	5,1	-17,1
1,672	-0,5	-18,4
1,6725	-2,3	-17,8
1,673	0,3	-15,3
1,6735	5,8	-12,3
1,674	11,5	-9,8
1,6745	16,4	-8,4
1,675	20,1	-8,2
1,6755	21,6	-8,9
1,676	19,9	-10,4
1,6765	14,8	-12,3
1,677	8,0	-13,6
1,6775	2,3	-13,6
1,678	-0,8	-12,3
1,6785	-1,3	-10,3
1,679	0,2	-8,8
1,6795	2,8	-8,1
1,68	6,1	-8,2
1,6805	8,6	-8,8
1,681	8,9	-9,8
1,6815	7,4	-10,9
1,682	5,7	-12,3
1,6825	5,1	-13,8
1,683	5,3	-15,6
1,6835	5,6	-17,4
1,684	6,7	-18,7
1,6845	9,3	-18,9
1,685	13,6	-17,9
1,6855	17,9	-16,0
1,686	20,2	-13,9
1,6865	18,9	-11,9
1,687	14,4	-10,6
1,6875	7,7	-10,3
1,688	-0,2	-11,0
1,6885	-7,5	-12,1
1,689	-11,7	-12,3
1,6895	-11,8	-11,1
1,69	-8,7	-9,4
1,6905	-4,7	-8,2
1,691	-1,4	-8,1
1,6915	1,0	-8,9
1,692	1,5	-10,3
1,6925	-0,8	-12,1
1,693	-6,3	-14,4
1,6935	-13,5	-16,8
1,694	-19,4	-18,9
1,6945	-22,0	-20,1
1,695	-20,7	-20,1
1,6955	-16,1	-19,1
1,696	-9,2	-17,2
1,6965	-1,2	-15,1
1,697	5,5	-13,8
1,6975	8,4	-13,8
1,698	7,3	-14,8
1,6985	4,1	-15,8
1,699	1,8	-15,9
1,6995	1,8	-15,3
1,7	3,8	-14,5
1,7005	8,1	-13,4
1,701	14,4	-12,2
1,7015	22,0	-10,8
1,702	29,3	-9,3
1,7025	34,1	-8,3
1,703	35,9	-8,0
1,7035	34,9	-8,3
1,704	31,6	-9,4
1,7045	26,3	-11,1
1,705	20,2	-12,8
1,7055	15,8	-13,4
1,706	15,6	-12,7
1,7065	19,3	-11,1
1,707	24,4	-9,5
1,7075	28,6	-8,6
1,708	31,3	-8,3
1,7085	32,6	-8,4
1,709	31,9	-9,3
1,7095	29,1	-10,9
1,71	24,5	-13,0
1,7105	19,9	-14,9
1,711	17,0	-15,8
1,7115	16,7	-15,7
1,712	18,6	-14,7
1,7125	22,3	-13,3
1,713	27,1	-11,9
1,7135	31,8	-10,8
1,714	34,4	-10,5
1,7145	33,7	-11,2
1,715	30,3	-12,6
1,7155	25,7	-13,8
1,716	21,2	-14,4
1,7165	17,5	-14,4
1,717	15,6	-13,7
1,7175	16,0	-12,3
1,718	18,5	-10,2
1,7185	21,8	-8,0
1,719	23,8	-6,7
1,7195	23,4	-6,6
1,72	20,6	-7,5
1,7205	15,5	-9,0
1,721	8,3	-10,8
1,7215	-0,4	-13,0
1,722	-8,4	-14,9
1,7225	-12,8	-15,7
1,723	-12,7	-15,3
1,7235	-9,8	-14,3
1,724	-6,7	-13,8
1,7245	-4,4	-13,9
1,725	-2,8	-14,5
1,7255	-1,9	-15,6
1,726	-2,2	-17,0
1,7265	-3,8	-18,7
1,727	-5,6	-20,1
1,7275	-5,9	-20,3
1,728	-3,4	-19,3
1,7285	1,3	-17,3
1,729	7,3	-14,6
1,7295	13,9	-11,7
1,73	20,3	-9,0
1,7305	24,8	-7,6
1,731	26,0	-7,7
1,7315	24,0	-8,6
1,732	20,6	-9,5
1,7325	17,7	-9,8
1,733	16,3	-9,9
1,7335	16,8	-9,9
1,734	20,0	-9,6
1,7345	26,2	-8,6
1,735	34,8	-7,0
1,7355	44,0	-5,6
1,736	51,4	-4,8
1,7365	55,5	-4,9
1,737	56,3	-6,1
1,7375	54,1	-8,0
1,738	49,4	-10,1
1,7385	43,8	-11,9
1,739	39,9	-12,6
1,7395	39,9	-11,9
1,74	42,8	-10,5
1,7405	45,8	-9,3
1,741	46,5	-8,5
1,7415	44,4	-7,8
1,742	39,2	-7,0
1,7425	30,9	-6,6
1,743	20,4	-7,1
1,7435	9,8	-8,6
1,744	1,8	-10,4
1,7445	-1,9	-11,5
1,745	-1,4	-11,6
1,7455	2,4	-10,8
1,746	8,7	-9,8
1,7465	16,8	-9,1
1,747	24,7	-9,3
1,7475	30,0	-10,8
1,748	31,9	-13,4
1,7485	31,8	-16,5
1,749	31,4	-19,3
1,7495	31,6	-21,0
1,75	32,4	-21,7
1,7505	34,4	-21,3
1,751	38,0	-20,0
1,7515	43,2	-18,2
1,752	48,3	-16,2
1,7525	51,2	-14,7
1,753	50,6	-13,5
1,7535	46,6	-12,6
1,754	40,0	-12,0
1,7545	31,2	-12,0
1,755	20,9	-12,5
1,7555	11,6	-13,0
1,756	6,2	-12,7
1,7565	5,6	-11,3
1,757	8,2	-9,3
1,7575	11,2	-7,3
1,758	13,0	-6,0
1,7585	13,1	-5,5
1,759	10,9	-5,9
1,7595	6,4	-6,8
1,76	0,5	-7,8
1,7605	-4,6	-7,9
1,761	-6,9	-7,1
1,7615	-5,6	-5,9
1,762	-1,3	-5,0
1,7625	5,0	-4,6
1,763	12,3	-4,3
1,7635	19,2	-4,2
1,764	23,8	-4,5
1,7645	25,1	-5,7
1,765	24,0	-7,4
1,7655	22,3	-9,1
1,766	21,7	-10,3
1,7665	22,4	-11,0
1,767	24,7	-10,9
1,7675	29,0	-10,0
1,768	35,5	-8,6
1,7685	43,0	-7,3
1,769	49,1	-6,8
1,7695	51,5	-7,4
1,77	49,7	-8,4
1,7705	45,0	-9,6
1,771	39,2	-10,7
1,7715	33,4	-11,9
1,772	29,1	-12,9
1,7725	28,4	-13,3
1,773	31,4	-13,0
1,7735	36,7	-12,5
1,774	41,8	-12,3
1,7745	45,5	-12,5
1,775	47,6	-13,0
1,7755	47,4	-14,0
1,776	44,8	-15,6
1,7765	40,5	-17,7
1,777	36,4	-19,4
1,7775	34,3	-19,8
1,778	34,8	-18,8
1,7785	37,3	-16,8
1,779	40,6	-14,9
1,7795	44,2	-13,7
1,78	46,9	-13,5
1,7805	46,7	-14,2
1,781	42,0	-15,8
1,7815	33,4	-17,6
1,782	23,1	-19,3
1,7825	13,5	-20,4
1,783	5,9	-20,7
1,7835	1,3	-20,3
1,784	0,9	-18,9
1,7845	5,5	-16,5
1,785	13,6	-13,5
1,7855	22,4	-10,4
1,786	28,7	-8,1
1,7865	30,9	-7,0
1,787	29,2	-7,3
1,7875	24,9	-8,7
1,788	19,7	-10,7
1,7885	15,1	-12,8
1,789	13,1	-14,4
1,7895	14,6	-15,1
1,79	18,4	-15,0
1,7905	22,7	-14,7
1,791	26,0	-14,6
1,7915	27,9	-14,9
1,792	28,1	-15,6
1,7925	25,4	-16,8
1,793	19,7	-18,3
1,7935	11,7	-19,8
1,794	3,3	-20,3
1,7945	-4,2	-19,3
1,795	-10,3	-17,3
1,7955	-14,8	-15,0
1,796	-17,5	-13,2
1,7965	-18,2	-12,1
1,797	-17,6	-11,7
1,7975	-17,8	-12,2
1,798	-19,3	-13,2
1,7985	-21,9	-14,0
1,799	-23,9	-14,3
1,7995	-24,3	-14,1
1,8	-22,6	-13,5
1,8005	-18,1	-12,8
1,801	-10,3	-12,1
1,8015	0,4	-11,2
1,802	12,1	-10,4
1,8025	21,7	-10,3
1,803	27,1	-11,1
1,8035	28,4	-13,0
1,804	27,0	-15,5
1,8045	24,4	-18,3
1,805	21,5	-20,6
1,8055	20,0	-21,8
1,806	21,5	-21,3
1,8065	25,8	-19,4
1,807	31,1	-16,5
1,8075	35,1	-13,5
1,808	37,2	-11,2
1,8085	37,1	-10,0
1,809	34,6	-10,2
1,8095	29,8	-11,7
1,81	23,6	-13,6
1,8105	17,5	-14,8
1,811	13,1	-14,8
1,8115	10,7	-13,5
1,812	10,3	-11,6
1,8125	11,7	-9,9
1,813	14,6	-8,8
1,8135	18,0	-8,2
1,814	19,2	-8,5
1,8145	17,1	-9,8
1,815	12,4	-11,8
1,8155	7,3	-13,9
1,816	3,2	-15,4
1,8165	0,9	-15,9
1,817	1,0	-15,4
1,8175	4,2	-14,2
1,818	10,3	-12,3
1,8185	17,9	-10,4
1,819	24,1	-9,2
1,8195	26,9	-9,2
1,82	26,3	-10,2
1,8205	23,3	-11,6
1,821	18,7	-13,2
1,8215	13,3	-14,4
1,822	8,6	-15,2
1,8225	6,8	-14,9
1,823	8,4	-13,9
1,8235	11,9	-12,6
1,824	14,9	-11,6
1,8245	16,6	-11,1
1,825	17,2	-11,1
1,8255	16,3	-11,8
1,826	13,2	-12,9
1,8265	8,1	-13,8
1,827	2,3	-13,9
1,8275	-2,3	-13,3
1,828	-4,3	-11,9
1,8285	-3,6	-9,9
1,829	-1,0	-7,6
1,8295	3,2	-5,1
1,83	8,6	-2,6
1,8305	13,7	-1,1
1,831	16,8	-1,1
1,8315	17,4	-2,8
1,832	16,2	-5,5
1,8325	14,6	-8,4
1,833	13,5	-10,8
1,8335	13,9	-12,4
1,834	16,5	-12,9
1,8345	21,7	-12,3
1,835	28,8	-10,7
1,8355	36,1	-8,8
1,836	41,4	-7,4
1,8365	43,5	-7,2
1,837	42,8	-8,2
1,8375	40,0	-10,0
1,838	35,8	-12,0
1,8385	31,5	-13,5
1,839	29,2	-14,0
1,8395	30,1	-13,2
1,84	33,1	-11,4
1,8405	35,8	-9,2
1,841	36,4	-7,1
1,8415	34,7	-5,2
1,842	30,1	-3,6
1,8425	22,5	-2,8
1,843	12,1	-2,8
1,8435	0,7	-3,8
1,844	-8,9	-4,8
1,8445	-14,7	-5,4
1,845	-15,8	-5,4
1,8455	-13,1	-4,7
1,846	-7,5	-3,7
1,8465	-0,5	-2,5
1,847	5,9	-1,7
1,8475	9,6	-1,7
1,848	10,3	-2,6
1,8485	9,3	-4,2
1,849	8,7	-5,8
1,8495	9,1	-7,2
1,85	10,7	-8,2
1,8505	13,8	-8,5
1,851	19,1	-7,9
1,8515	26,4	-6,4
1,852	34,2	-4,7
1,8525	40,3	-3,4
1,853	43,1	-2,9
1,8535	42,6	-3,3
1,854	39,6	-4,3
1,8545	34,7	-5,9
1,855	28,9	-7,7
1,8555	24,5	-9,3
1,856	23,7	-10,0
1,8565	26,5	-9,8
1,857	30,8	-9,1
1,8575	33,9	-8,3
1,858	35,0	-7,6
1,8585	34,2	-7,3
1,859	31,3	-8,0
1,8595	26,0	-9,8
1,86	19,1	-12,6
1,8605	12,4	-15,2
1,861	7,9	-16,8
1,8615	6,7	-16,8
1,862	8,6	-15,7
1,8625	13,0	-14,0
1,863	19,4	-12,3
1,8635	26,2	-11,2
1,864	31,0	-11,0
1,8645	32,1	-11,7
1,865	29,8	-12,6
1,8655	26,0	-13,4
1,866	22,6	-14,0
1,8665	20,2	-14,5
1,867	19,3	-15,0
1,8675	20,2	-15,0
1,868	22,8	-14,2
1,8685	25,7	-12,8
1,869	27,2	-11,2
1,8695	25,9	-10,0
1,87	22,3	-9,3
1,8705	17,6	-9,0
1,871	12,5	-8,8
1,8715	7,1	-8,5
1,872	2,0	-8,1
1,8725	-1,4	-7,0
1,873	-2,8	-5,3
1,8735	-2,8	-3,0
1,874	-3,2	-0,9
1,8745	-4,6	0,4
1,875	-7,2	0,7
1,8755	-11,3	-0,2
1,876	-17,1	-1,8
1,8765	-23,9	-4,0
1,877	-29,9	-6,2
1,8775	-33,1	-8,1
1,878	-32,5	-9,2
1,8785	-28,7	-9,3
1,879	-22,2	-8,3
1,8795	-14,0	-6,4
1,88	-5,1	-4,1
1,8805	2,1	-2,4
1,881	5,6	-2,3
1,8815	5,7	-3,3
1,882	4,3	-4,8
1,8825	3,1	-5,9
1,883	2,9	-6,3
1,8835	3,8	-5,9
1,884	6,4	-5,1
1,8845	11,6	-3,9
1,885	18,8	-2,8
1,8855	26,3	-2,3
1,886	31,6	-2,8
1,8865	33,2	-4,0
1,887	31,2	-5,5
1,8875	26,5	-7,0
1,888	19,7	-8,3
1,8885	12,5	-9,4
1,889	7,1	-9,9
1,8895	5,2	-9,5
1,89	6,2	-8,3
1,8905	8,3	-6,9
1,891	9,8	-6,0
1,8915	10,1	-5,7
1,892	8,6	-5,9
1,8925	4,1	-6,4
1,893	-3,6	-7,2
1,8935	-13,1	-8,3
1,894	-21,7	-9,2
1,8945	-26,8	-9,5
1,895	-27,6	-9,1
1,8955	-25,0	-8,3
1,896	-19,8	-7,3
1,8965	-12,8	-6,3
1,897	-5,5	-5,3
1,8975	-0,6	-5,0
1,898	0,9	-5,5
1,8985	-0,2	-6,6
1,899	-2,0	-7,8
1,8995	-3,3	-8,8
1,9	-3,7	-9,6
1,9005	-2,3	-10,0
1,901	1,7	-9,5
1,9015	8,1	-8,2
1,902	15,0	-6,6
1,9025	20,2	-5,7
1,903	22,1	-5,8
1,9035	20,8	-6,9
1,904	17,2	-8,5
1,9045	12,1	-10,1
1,905	6,4	-11,8
1,9055	2,5	-12,9
1,906	2,4	-13,1
1,9065	6,4	-12,5
1,907	12,3	-11,6
1,9075	17,8	-11,0
1,908	21,6	-11,0
1,9085	23,2	-11,8
1,909	21,9	-13,2
1,9095	17,6	-15,1
1,91	11,1	-17,4
1,9105	4,8	-19,3
1,911	1,3	-20,3
1,9115	1,7	-20,3
1,912	5,2	-19,2
1,9125	10,5	-17,2
1,913	16,6	-14,3
1,9135	21,8	-11,4
1,914	23,8	-9,3
1,9145	21,2	-8,4
1,915	15,0	-8,4
1,9155	7,4	-8,5
1,916	0,4	-8,5
1,9165	-5,5	-8,3
1,917	-10,0	-7,7
1,9175	-12,3	-6,3
1,918	-12,1	-3,7
1,9185	-10,1	-0,3
1,919	-8,3	2,7
1,9195	-8,6	4,1
1,92	-10,9	3,2
1,9205	-14,1	0,4
1,921	-17,2	-3,4
1,9215	-19,3	-6,8
1,922	-19,8	-9,0
1,9225	-17,3	-9,6
1,923	-12,0	-8,8
1,9235	-5,4	-7,4
1,924	-0,1	-6,1
1,9245	2,9	-5,4
1,925	3,8	-5,6
1,9255	2,5	-6,5
1,926	-1,2	-8,0
1,9265	-7,2	-9,8
1,927	-14,2	-11,4
1,9275	-19,5	-12,1
1,928	-21,6	-11,4
1,9285	-20,3	-9,4
1,929	-16,3	-6,4
1,9295	-10,2	-3,0
1,93	-3,2	0,3
1,9305	2,9	2,3
1,931	6,1	2,2
1,9315	6,0	0,1
1,932	3,9	-3,1
1,9325	1,9	-6,2
1,933	0,9	-8,5
1,9335	1,3	-9,8
1,934	3,7	-10,3
1,9345	8,8	-10,0
1,935	16,5	-9,5
1,9355	25,0	-9,0
1,936	31,9	-9,0
1,9365	35,9	-9,4
1,937	36,7	-10,1
1,9375	34,7	-10,8
1,938	30,2	-11,4
1,9385	24,3	-11,6
1,939	19,1	-11,0
1,9395	16,8	-9,6
1,94	17,0	-7,3
1,9405	17,6	-4,4
1,941	16,4	-1,8
1,9415	12,9	0,3
1,942	6,9	1,4
1,9425	-2,0	1,5
1,943	-13,7	0,9
1,9435	-26,4	-0,1
1,944	-37,2	-1,1
1,9445	-43,6	-2,0
1,945	-45,0	-2,5
1,9455	-42,6	-2,4
1,946	-37,6	-1,9
1,9465	-31,2	-1,3
1,947	-24,9	-1,2
1,9475	-20,6	-2,4
1,948	-18,7	-4,8
1,9485	-17,8	-7,5
1,949	-16,1	-9,7
1,9495	-12,7	-11,0
1,95	-8,3	-11,5
1,9505	-3,1	-11,1
1,951	3,3	-9,6
1,9515	10,7	-7,1
1,952	18,0	-4,3
1,9525	22,9	-2,3
1,953	24,3	-2,0
1,9535	22,4	-3,3
1,954	18,3	-5,6
1,9545	13,0	-8,0
1,955	7,3	-9,8
1,9555	2,9	-10,0
1,956	1,3	-8,1
1,9565	2,0	-4,4
1,957	3,3	-0,3
1,9575	3,3	2,8
1,958	1,4	4,2
1,9585	-1,9	3,9
1,959	-6,8	2,3
1,9595	-13,3	-0,3
1,96	-21,3	-3,1
1,9605	-28,9	-5,5
1,961	-33,9	-6,9
1,9615	-34,5	-6,9
1,962	-30,8	-5,8
1,9625	-24,0	-4,2
1,963	-15,4	-2,4
1,9635	-7,1	-1,1
1,964	-1,8	-0,5
1,9645	-1,4	-0,7
1,965	-5,2	-1,4
1,9655	-10,5	-2,6
1,966	-15,3	-4,2
1,9665	-18,4	-6,3
1,967	-19,2	-8,1
1,9675	-16,8	-9,2
1,968	-11,1	-9,4
1,9685	-3,6	-9,0
1,969	3,2	-8,7
1,9695	7,2	-8,9
1,97	7,7	-9,7
1,9705	5,4	-10,9
1,971	1,3	-12,1
1,9715	-3,5	-13,3
1,972	-7,3	-13,9
1,9725	-7,9	-13,8
1,973	-4,7	-13,1
1,9735	0,8	-12,2
1,974	5,9	-11,3
1,9745	8,5	-10,6
1,975	8,2	-9,6
1,9755	4,8	-8,5
1,976	-2,0	-7,6
1,9765	-11,9	-7,2
1,977	-23,0	-7,3
1,9775	-32,6	-7,3
1,978	-38,5	-7,0
1,9785	-40,2	-6,5
1,979	-38,8	-5,9
1,9795	-35,4	-5,3
1,98	-31,1	-4,6
1,9805	-27,8	-4,0
1,981	-27,0	-4,0
1,9815	-28,6	-4,5
1,982	-30,8	-5,3
1,9825	-32,0	-6,2
1,983	-31,6	-7,0
1,9835	-30,3	-7,8
1,984	-28,5	-8,5
1,9845	-25,9	-8,8
1,985	-22,4	-8,4
1,9855	-18,8	-7,9
1,986	-16,8	-7,8
1,9865	-17,6	-8,4
1,987	-21,0	-9,2
1,9875	-26,2	-9,7
1,988	-32,1	-10,0
1,9885	-36,9	-10,3
1,989	-38,0	-10,8
1,9895	-34,1	-11,4
1,99	-26,4	-12,1
1,9905	-18,1	-12,6
1,991	-11,8	-13,0
1,9915	-8,0	-13,2
1,992	-6,5	-13,4
1,9925	-7,6	-14,0
1,993	-11,1	-15,1
1,9935	-16,7	-16,3
1,994	-22,4	-17,2
1,9945	-26,1	-17,6
1,995	-26,3	-17,3
1,9955	-22,7	-16,3
1,996	-16,1	-14,4
1,9965	-7,9	-11,9
1,997	-0,7	-9,5
1,9975	2,7	-8,0
1,998	1,2	-7,6
1,9985	-3,6	-8,0
1,999	-8,4	-8,6
1,9995	-11,3	-9,2
2	-11,1	-9,8
2,0005	-7,6	-10,1
2,001	-1,0	-9,8
2,0015	7,4	-8,8
2,002	15,4	-7,7
2,0025	20,3	-7,2
2,003	20,6	-7,7
2,0035	16,8	-9,1
2,004	9,9	-10,8
2,0045	1,3	-12,3
2,005	-7,8	-13,0
2,0055	-14,9	-13,0
2,006	-17,5	-12,3
2,0065	-14,8	-11,6
2,007	-8,6	-11,4
2,0075	-1,3	-12,1
2,008	5,1	-13,3
2,0085	9,4	-14,4
2,009	10,3	-15,3
2,0095	7,0	-16,3
2,01	0,7	-17,7
2,0105	-6,4	-19,1
2,011	-11,8	-19,7
2,0115	-14,3	-19,1
2,012	-14,3	-17,3
2,0125	-12,7	-14,8
2,013	-9,6	-12,4
2,0135	-5,9	-10,6
2,014	-3,6	-10,3
2,0145	-4,5	-11,7
2,015	-8,3	-14,0
2,0155	-12,9	-16,1
2,016	-16,7	-16,7
2,0165	-19,1	-16,0
2,017	-20,0	-14,3
2,0175	-18,7	-12,3
2,018	-14,4	-10,2
2,0185	-8,2	-8,4
2,019	-2,5	-7,2
2,0195	0,5	-6,9
2,02	0,4	-7,4
2,0205	-1,9	-8,6
2,021	-5,3	-10,3
2,0215	-8,9	-12,2
2,022	-11,4	-13,6
2,0225	-10,6	-13,7
2,023	-6,1	-12,2
2,0235	0,6	-9,9
2,024	6,5	-7,6
2,0245	9,3	-6,2
2,025	8,7	-6,0
2,0255	4,8	-7,0
2,026	-1,6	-9,3
2,0265	-9,4	-12,7
2,027	-16,9	-16,4
2,0275	-21,8	-19,4
2,028	-22,7	-21,3
2,0285	-20,1	-22,0
2,029	-15,1	-21,8
2,0295	-9,0	-21,1
2,03	-2,9	-19,9
2,0305	1,3	-19,0
2,031	2,2	-18,9
2,0315	0,5	-19,5
2,032	-1,9	-20,1
2,0325	-3,6	-20,0
2,033	-4,1	-19,2
2,0335	-4,2	-17,9
2,034	-3,5	-16,4
2,0345	-1,5	-14,6
2,035	1,6	-12,8
2,0355	4,1	-11,6
2,036	3,9	-11,4
2,0365	0,7	-12,0
2,037	-5,2	-12,9
2,0375	-12,7	-13,7
2,038	-20,9	-14,0
2,0385	-28,3	-13,8
2,039	-32,8	-13,0
2,0395	-32,8	-11,6
2,04	-29,0	-9,9
2,0405	-23,8	-8,1
2,041	-19,7	-6,5
2,0415	-17,5	-5,5
2,042	-17,7	-5,3
2,0425	-20,8	-6,2
2,043	-26,7	-7,9
2,0435	-34,0	-10,1
2,044	-40,0	-11,6
2,0445	-42,4	-11,7
2,045	-40,8	-10,6
2,0455	-35,9	-8,8
2,046	-28,8	-6,8
2,0465	-20,5	-5,3
2,047	-13,0	-4,7
2,0475	-8,8	-5,1
2,048	-8,9	-6,5
2,0485	-11,6	-8,4
2,049	-14,6	-10,3
2,0495	-16,7	-12,0
2,05	-17,7	-13,1
2,0505	-17,4	-13,5
2,051	-14,9	-12,9
2,0515	-10,1	-11,8
2,052	-4,2	-10,7
2,0525	0,3	-10,3
2,053	2,0	-10,8
2,0535	0,8	-12,1
2,054	-2,4	-13,8
2,0545	-6,9	-15,5
2,055	-11,6	-17,0
2,0555	-14,6	-17,7
2,056	-14,2	-17,1
2,0565	-10,7	-15,4
2,057	-6,3	-13,6
2,0575	-3,4	-12,4
2,058	-2,5	-11,9
2,0585	-3,1	-11,8
2,059	-5,4	-12,1
2,0595	-9,6	-12,7
2,06	-15,6	-13,6
2,0605	-21,7	-14,7
2,061	-25,4	-15,6
2,0615	-25,6	-16,1
2,062	-22,4	-16,2
2,0625	-16,4	-15,6
2,063	-8,6	-14,3
2,0635	-0,6	-12,5
2,064	5,2	-10,8
2,0645	7,0	-9,7
2,065	5,0	-9,5
2,0655	0,8	-9,4
2,066	-3,6	-9,1
2,0665	-7,4	-8,5
2,067	-9,5	-7,9
2,0675	-8,3	-7,5
2,068	-2,9	-7,1
2,0685	5,7	-6,8
2,069	14,5	-7,1
2,0695	20,7	-8,0
2,07	23,0	-9,5
2,0705	21,7	-11,3
2,071	17,8	-13,3
2,0715	12,2	-15,7
2,072	6,5	-18,1
2,0725	2,9	-19,8
2,073	2,5	-20,4
2,0735	4,5	-20,3
2,074	6,7	-20,0
2,0745	8,0	-19,7
2,075	8,2	-19,1
2,0755	7,3	-18,4
2,076	4,4	-18,1
2,0765	-0,8	-18,3
2,077	-7,8	-18,9
2,0775	-14,3	-18,7
2,078	-18,6	-17,0
2,0785	-20,1	-14,2
2,079	-19,5	-11,1
2,0795	-17,2	-8,4
2,08	-13,9	-6,6
2,0805	-11,3	-5,9
2,081	-11,3	-6,7
2,0815	-14,0	-8,6
2,082	-17,9	-10,6
2,0825	-21,3	-12,0
2,083	-23,2	-12,5
2,0835	-23,6	-12,3
2,084	-22,0	-12,0
2,0845	-17,6	-11,5
2,085	-11,1	-10,9
2,0855	-4,6	-10,6
2,086	-0,4	-10,8
2,0865	0,6	-11,5
2,087	-0,8	-12,3
2,0875	-3,9	-13,3
2,088	-8,0	-14,3
2,0885	-11,9	-15,3
2,089	-13,4	-15,6
2,0895	-11,0	-15,3
2,09	-5,2	-14,4
2,0905	1,5	-13,7
2,091	6,9	-13,7
2,0915	10,4	-14,2
2,092	12,0	-15,3
2,0925	11,2	-16,8
2,093	8,0	-18,7
2,0935	2,9	-20,1
2,094	-2,3	-20,5
2,0945	-6,1	-19,7
2,095	-7,6	-18,0
2,0955	-7,0	-16,3
2,096	-4,6	-14,6
2,0965	-0,9	-13,3
2,097	2,3	-12,3
2,0975	2,5	-11,8
2,098	-0,9	-11,8
2,0985	-6,6	-11,9
2,099	-12,5	-12,1
2,0995	-17,2	-12,6
2,1	-20,3	-13,7
2,1005	-21,1	-14,8
2,101	-19,0	-15,3
2,1015	-14,1	-14,9
2,102	-8,3	-13,8
2,1025	-4,4	-12,6
2,103	-4,1	-11,8
2,1035	-6,8	-11,3
2,104	-11,7	-11,0
2,1045	-17,6	-11,0
2,105	-23,5	-11,5
2,1055	-27,3	-12,5
2,106	-27,2	-13,5
2,1065	-23,1	-13,8
2,107	-17,3	-13,6
2,1075	-12,1	-13,3
2,108	-8,4	-13,1
2,1085	-6,3	-13,0
2,109	-5,7	-13,1
2,1095	-7,2	-13,8
2,11	-10,8	-15,2
2,1105	-15,3	-16,7
2,111	-19,2	-17,8
2,1115	-21,5	-18,2
2,112	-22,4	-17,9
2,1125	-22,0	-17,3
2,113	-20,5	-16,3
2,1135	-18,6	-15,3
2,114	-18,4	-14,8
2,1145	-21,2	-15,0
2,115	-26,5	-15,8
2,1155	-32,0	-16,5
2,116	-35,7	-16,6
2,1165	-36,9	-16,3
2,117	-35,6	-15,8
2,1175	-31,5	-14,9
2,118	-24,7	-13,5
2,1185	-16,1	-11,5
2,119	-8,3	-9,5
2,1195	-3,1	-8,2
2,12	-1,4	-7,7
2,1205	-2,7	-7,9
2,121	-6,3	-8,7
2,1215	-11,3	-9,8
2,122	-15,8	-11,1
2,1225	-17,2	-11,7
2,123	-14,8	-11,2
2,1235	-10,1	-9,8
2,124	-5,5	-8,2
2,1245	-2,5	-6,9
2,125	-1,3	-6,1
2,1255	-2,3	-5,7
2,126	-5,8	-5,8
2,1265	-11,9	-6,3
2,127	-19,0	-7,1
2,1275	-24,6	-7,8
2,128	-26,5	-8,6
2,1285	-24,7	-9,6
2,129	-20,2	-10,7
2,1295	-14,3	-11,6
2,13	-8,0	-12,1
2,1305	-3,0	-12,3
2,131	-1,3	-13,0
2,1315	-3,3	-14,1
2,132	-7,2	-15,2
2,1325	-10,8	-15,7
2,133	-13,3	-15,6
2,1335	-14,5	-14,9
2,134	-13,6	-13,8
2,1345	-9,9	-12,2
2,135	-3,8	-10,1
2,1355	2,3	-7,9
2,136	5,8	-6,0
2,1365	5,4	-4,8
2,137	1,8	-4,4
2,1375	-3,6	-5,0
2,138	-9,9	-6,5
2,1385	-16,2	-8,6
2,139	-21,1	-10,3
2,1395	-23,0	-10,6
2,14	-22,2	-9,4
2,1405	-20,3	-7,3
2,141	-18,9	-5,6
2,1415	-18,3	-4,8
2,142	-18,4	-5,2
2,1425	-19,7	-6,8
2,143	-22,8	-9,3
2,1435	-27,2	-11,7
2,144	-30,8	-13,1
2,1445	-32,4	-13,2
2,145	-32,4	-12,0
2,1455	-32,0	-10,3
2,146	-32,0	-8,5
2,1465	-32,2	-7,1
2,147	-32,5	-6,2
2,1475	-34,2	-6,1
2,148	-37,6	-7,0
2,1485	-41,5	-8,2
2,149	-43,9	-9,1
2,1495	-43,7	-9,4
2,15	-41,1	-9,6
2,1505	-35,7	-9,7
2,151	-27,3	-9,6
2,1515	-16,3	-9,3
2,152	-4,8	-8,6
2,1525	4,5	-8,2
2,153	9,8	-8,4
2,1535	10,9	-9,4
2,154	8,8	-10,8
2,1545	4,5	-12,1
2,155	-0,7	-12,9
2,1555	-4,7	-12,8
2,156	-5,8	-11,5
2,1565	-4,1	-8,9
2,157	-1,3	-5,6
2,1575	0,5	-2,6
2,158	0,8	-0,2
2,1585	-0,5	1,2
2,159	-3,8	1,3
2,1595	-9,2	0,0
2,16	-15,6	-2,4
2,1605	-20,7	-5,7
2,161	-22,1	-8,8
2,1615	-19,5	-10,9
2,162	-13,4	-11,4
2,1625	-5,2	-10,4
2,163	4,2	-8,4
2,1635	13,0	-6,1
2,164	18,6	-4,5
2,1645	19,8	-4,5
2,165	17,8	-6,1
2,1655	15,0	-8,2
2,166	13,3	-9,8
2,1665	12,8	-10,4
2,167	13,0	-10,3
2,1675	14,6	-9,7
2,168	18,2	-8,8
2,1685	23,4	-7,7
2,169	28,1	-7,0
2,1695	29,9	-6,8
2,17	28,1	-6,8
2,1705	23,0	-6,7
2,171	15,7	-6,9
2,1715	7,4	-7,5
2,172	-0,3	-8,3
2,1725	-5,3	-8,2
2,173	-6,2	-7,2
2,1735	-4,3	-6,0
2,174	-1,8	-5,7
2,1745	-0,6	-6,5
2,175	-1,1	-8,0
2,1755	-3,3	-10,1
2,176	-7,4	-12,5
2,1765	-13,5	-15,1
2,177	-20,4	-17,3
2,1775	-26,2	-18,6
2,178	-29,0	-18,5
2,1785	-28,6	-17,1
2,179	-25,3	-14,7
2,1795	-20,0	-11,5
2,18	-13,4	-8,0
2,1805	-8,1	-5,0
2,181	-6,4	-3,2
2,1815	-9,1	-2,7
2,182	-14,6	-3,1
2,1825	-20,2	-4,0
2,183	-24,3	-5,4
2,1835	-25,9	-7,3
2,184	-24,2	-9,2
2,1845	-18,8	-10,4
2,185	-10,6	-10,5
2,1855	-1,8	-10,0
2,186	4,9	-9,5
2,1865	8,5	-9,4
2,187	8,9	-9,7
2,1875	6,8	-10,2
2,188	2,6	-10,9
2,1885	-2,7	-11,7
2,189	-7,0	-11,9
2,1895	-8,4	-11,4
2,19	-6,7	-10,4
2,1905	-3,7	-9,5
2,191	-1,8	-9,0
2,1915	-1,8	-8,7
2,192	-4,0	-8,7
2,1925	-8,6	-9,1
2,193	-15,8	-10,1
2,1935	-24,1	-11,5
2,194	-31,0	-12,3
2,1945	-34,5	-11,8
2,195	-34,3	-10,3
2,1955	-31,5	-8,3
2,196	-27,0	-6,1
2,1965	-21,7	-3,8
2,197	-17,4	-1,9
2,1975	-16,1	-0,8
2,198	-18,3	-1,2
2,1985	-21,9	-2,6
2,199	-24,6	-4,5
2,1995	-25,0	-6,3
2,2	-23,3	-7,7
2,2005	-19,8	-8,4
2,201	-14,3	-8,2
2,2015	-7,3	-6,8
2,202	-0,4	-5,0
2,2025	4,0	-3,4
2,203	5,0	-2,9
2,2035	3,1	-3,5
2,204	-0,7	-5,0
2,2045	-5,5	-6,8
2,205	-11,0	-8,8
2,2055	-15,5	-10,2
2,206	-17,6	-10,3
2,2065	-17,2	-9,0
2,207	-16,0	-7,0
2,2075	-15,9	-5,2
2,208	-17,5	-4,0
2,2085	-21,0	-3,1
2,209	-26,7	-2,5
2,2095	-34,8	-2,8
2,21	-44,8	-4,4
2,2105	-54,2	-6,8
2,211	-61,0	-8,7
2,2115	-64,5	-9,6
2,212	-65,0	-9,6
2,2125	-62,8	-8,8
2,213	-58,3	-7,5
2,2135	-52,5	-6,2
2,214	-47,7	-5,7
2,2145	-45,9	-6,7
2,215	-46,9	-9,0
2,2155	-48,7	-11,5
2,216	-48,5	-13,3
2,2165	-45,4	-13,9
2,217	-39,5	-13,6
2,2175	-31,1	-12,4
2,218	-21,3	-10,7
2,2185	-11,6	-8,8
2,219	-5,1	-7,5
2,2195	-4,3	-7,2
2,22	-9,8	-7,8
2,2205	-20,2	-8,9
2,221	-33,6	-10,2
2,2215	-48,3	-11,4
2,222	-62,0	-12,3
2,2225	-72,2	-12,3
2,223	-77,2	-11,1
2,2235	-77,7	-9,0
2,224	-75,8	-6,8
2,2245	-73,2	-5,1
2,225	-70,8	-4,2
2,2255	-69,6	-4,1
2,226	-71,5	-4,8
2,2265	-77,3	-6,4
2,227	-85,1	-8,3
2,2275	-91,5	-10,0
2,228	-93,4	-11,0
2,2285	-90,2	-11,1
2,229	-82,8	-10,2
2,2295	-72,1	-8,6
2,23	-59,9	-6,9
2,2305	-48,7	-5,8
2,231	-41,6	-5,7
2,2315	-39,3	-6,7
2,232	-40,0	-8,0
2,2325	-41,4	-8,8
2,233	-42,0	-9,0
2,2335	-41,6	-8,5
2,234	-39,3	-7,2
2,2345	-34,3	-5,1
2,235	-27,2	-2,5
2,2355	-20,0	-0,3
2,236	-15,5	1,0
2,2365	-15,0	1,0
2,237	-17,8	-0,0
2,2375	-22,4	-1,9
2,238	-28,0	-4,3
2,2385	-33,5	-6,9
2,239	-36,5	-8,8
2,2395	-35,2	-9,5
2,24	-29,6	-9,5
2,2405	-22,1	-9,4
2,241	-15,2	-9,7
2,2415	-10,1	-10,3
2,242	-7,8	-11,2
2,2425	-8,9	-12,5
2,243	-13,2	-14,1
2,2435	-19,5	-15,8
2,244	-25,5	-16,8
2,2445	-29,3	-16,4
2,245	-30,5	-14,9
2,2455	-29,8	-12,6
2,246	-28,1	-10,0
2,2465	-25,9	-7,6
2,247	-24,6	-5,9
2,2475	-26,4	-5,8
2,248	-32,1	-7,2
2,2485	-40,3	-8,9
2,249	-48,8	-9,7
2,2495	-55,8	-9,2
2,25	-60,7	-7,8
2,2505	-62,9	-6,0
2,251	-61,9	-3,6
2,2515	-58,2	-0,4
2,252	-53,8	3,2
2,2525	-51,2	6,0
2,253	-51,8	7,1
2,2535	-54,8	6,3
2,254	-59,3	3,8
2,2545	-64,5	0,2
2,255	-69,7	-3,8
2,2555	-73,1	-7,0
2,256	-72,9	-8,3
2,2565	-69,0	-7,8
2,257	-63,1	-6,2
2,2575	-57,5	-4,6
2,258	-53,2	-3,3
2,2585	-50,3	-2,7
2,259	-49,7	-2,7
2,2595	-51,8	-3,2
2,26	-56,7	-3,9
2,2605	-62,5	-4,5
2,261	-66,9	-4,5
2,2615	-68,5	-4,0
2,262	-67,4	-3,1
2,2625	-64,4	-1,7
2,263	-60,3	-0,1
2,2635	-56,5	1,3
2,264	-55,3	2,0
2,2645	-58,2	1,4
2,265	-64,4	-0,2
2,2655	-71,4	-2,3
2,266	-76,8	-4,2
2,2665	-80,0	-5,3
2,267	-80,9	-5,7
2,2675	-79,0	-4,9
2,268	-73,9	-3,0
2,2685	-66,8	-0,3
2,269	-60,1	2,0
2,2695	-56,6	2,5
2,27	-56,8	1,1
2,2705	-59,8	-1,6
2,271	-64,6	-4,8
2,2715	-70,1	-7,4
2,272	-74,9	-9,0
2,2725	-77,2	-9,1
2,273	-76,1	-7,6
2,2735	-72,7	-5,1
2,274	-69,1	-2,6
2,2745	-66,9	-0,9
2,275	-66,2	-0,6
2,2755	-67,5	-1,6
2,276	-71,3	-3,6
2,2765	-77,3	-6,0
2,277	-83,9	-8,0
2,2775	-88,6	-8,7
2,278	-89,7	-8,0
2,2785	-87,3	-6,4
2,279	-82,8	-4,4
2,2795	-77,2	-2,7
2,28	-72,1	-1,2
2,2805	-69,2	-0,3
2,281	-70,3	-0,2
2,2815	-75,1	-0,8
2,282	-81,6	-1,7
2,2825	-87,1	-2,3
2,283	-90,7	-2,2
2,2835	-92,2	-1,2
2,284	-91,0	0,5
2,2845	-86,4	2,3
2,285	-78,6	4,1
2,2855	-69,8	5,2
2,286	-62,9	5,5
2,2865	-59,7	4,8
2,287	-60,6	3,3
2,2875	-64,7	1,1
2,288	-71,1	-1,3
2,2885	-78,3	-3,8
2,289	-83,6	-5,8
2,2895	-85,0	-6,8
2,29	-82,5	-6,7
2,2905	-78,1	-6,2
2,291	-74,0	-5,8
2,2915	-71,2	-5,4
2,292	-70,7	-5,0
2,2925	-73,2	-4,7
2,293	-79,2	-4,8
2,2935	-87,8	-5,7
2,294	-96,2	-6,6
2,2945	-101,8	-6,8
2,295	-103,4	-5,7
2,2955	-101,9	-3,7
2,296	-98,5	-1,3
2,2965	-94,8	0,7
2,297	-92,5	1,9
2,2975	-93,5	1,8
2,298	-98,2	0,4
2,2985	-105,1	-1,7
2,299	-112,0	-3,8
2,2995	-117,3	-5,3
2,3	-120,6	-6,2
2,3005	-121,4	-6,2
2,301	-119,0	-5,2
2,3015	-113,6	-3,4
2,302	-106,7	-1,4
2,3025	-100,6	-0,4
2,303	-97,0	-0,9
2,3035	-96,1	-2,4
2,304	-97,5	-4,2
2,3045	-100,5	-5,6
2,305	-104,2	-6,4
2,3055	-106,6	-6,4
2,306	-105,5	-5,7
2,3065	-100,2	-4,3
2,307	-91,8	-2,6
2,3075	-83,2	-1,4
2,308	-75,7	-1,1
2,3085	-70,2	-1,6
2,309	-67,7	-2,8
2,3095	-68,6	-4,5
2,31	-72,6	-6,4
2,3105	-77,5	-7,9
2,311	-81,0	-8,4
2,3115	-82,0	-7,9
2,312	-80,9	-6,7
2,3125	-78,7	-4,9
2,313	-76,3	-3,0
2,3135	-74,6	-1,4
2,314	-75,2	-0,6
2,3145	-79,0	-0,6
2,315	-84,9	-1,0
2,3155	-90,6	-1,1
2,316	-94,0	-1,0
2,3165	-94,8	-1,1
2,317	-93,2	-1,5
2,3175	-89,5	-1,7
2,318	-83,9	-1,1
2,3185	-77,3	0,3
2,319	-71,8	1,5
2,3195	-69,8	1,9
2,32	-72,2	1,3
2,3205	-78,4	-0,1
2,321	-86,9	-1,9
2,3215	-96,4	-3,4
2,322	-104,8	-4,3
2,3225	-109,8	-4,0
2,323	-110,5	-2,6
2,3235	-107,7	-0,7
2,324	-103,5	0,6
2,3245	-99,8	0,7
2,325	-97,0	-0,6
2,3255	-95,9	-2,5
2,326	-97,2	-4,6
2,3265	-101,3	-6,8
2,327	-107,0	-8,8
2,3275	-111,7	-10,1
2,328	-113,2	-10,3
2,3285	-111,3	-9,4
2,329	-106,8	-7,8
2,3295	-100,2	-5,9
2,33	-92,1	-4,6
2,3305	-83,9	-4,2
2,331	-78,1	-5,0
2,3315	-75,8	-6,7
2,332	-76,1	-8,4
2,3325	-76,9	-9,4
2,333	-77,3	-9,9
2,3335	-77,1	-10,2
2,334	-76,1	-10,0
2,3345	-73,4	-9,0
2,335	-68,7	-7,2
2,3355	-63,3	-4,9
2,336	-59,7	-3,1
2,3365	-59,2	-2,0
2,337	-61,7	-2,1
2,3375	-66,2	-3,2
2,338	-72,3	-5,1
2,3385	-78,9	-7,0
2,339	-83,9	-7,6
2,3395	-85,3	-6,5
2,34	-83,0	-3,8
2,3405	-79,2	-0,8
2,341	-76,6	1,8
2,3415	-76,7	3,2
2,342	-80,3	3,7
2,3425	-87,3	3,3
2,343	-97,1	2,1
2,3435	-107,8	0,3
2,344	-116,3	-1,8
2,3445	-119,8	-3,7
2,345	-117,5	-5,0
2,3455	-110,3	-5,5
2,346	-99,8	-4,9
2,3465	-87,5	-3,6
2,347	-75,8	-2,6
2,3475	-67,4	-2,7
2,348	-64,2	-4,1
2,3485	-65,1	-6,3
2,349	-67,8	-8,6
2,3495	-70,1	-10,6
2,35	-71,2	-12,3
2,3505	-70,5	-13,3
2,351	-67,5	-13,2
2,3515	-62,1	-11,8
2,352	-55,4	-9,7
2,3525	-49,5	-7,6
2,353	-46,5	-6,2
2,3535	-46,8	-5,4
2,354	-50,2	-5,2
2,3545	-56,2	-5,9
2,355	-64,1	-7,2
2,3555	-72,1	-8,0
2,356	-77,8	-7,4
2,3565	-80,2	-4,8
2,357	-80,3	-1,3
2,3575	-79,8	1,8
2,358	-79,8	3,7
2,3585	-80,6	4,3
2,359	-83,1	3,8
2,3595	-87,5	2,3
2,36	-93,3	-0,0
2,3605	-98,7	-2,7
2,361	-101,6	-4,6
2,3615	-101,4	-5,2
2,362	-99,0	-4,2
2,3625	-95,9	-2,1
2,363	-92,6	0,5
2,3635	-89,8	2,7
2,364	-88,6	3,6
2,3645	-90,1	2,5
2,365	-93,7	-0,2
2,3655	-97,4	-3,3
2,366	-99,7	-5,8
2,3665	-100,3	-7,3
2,367	-99,5	-7,5
2,3675	-97,1	-6,5
2,368	-92,8	-4,7
2,3685	-86,8	-2,7
2,369	-80,9	-0,9
2,3695	-77,2	0,4
2,37	-76,8	1,3
2,3705	-79,6	2,0
2,371	-85,5	2,3
2,3715	-93,5	1,9
2,372	-101,4	1,0
2,3725	-106,3	0,1
2,373	-106,4	-0,2
2,3735	-102,9	0,1
2,374	-98,3	0,8
2,3745	-94,7	1,5
2,375	-92,8	1,9
2,3755	-93,0	1,6
2,376	-96,1	0,2
2,3765	-101,9	-1,7
2,377	-109,4	-3,5
2,3775	-115,8	-4,3
2,378	-118,9	-4,0
2,3785	-117,8	-2,6
2,379	-112,9	-0,8
2,3795	-105,4	0,6
2,38	-96,6	1,5
2,3805	-88,5	1,7
2,381	-83,3	1,2
2,3815	-81,7	0,2
2,382	-82,5	-0,9
2,3825	-84,2	-1,6
2,383	-85,6	-1,8
2,3835	-86,2	-1,4
2,384	-85,3	-0,7
2,3845	-82,1	0,7
2,385	-76,8	2,4
2,3855	-70,8	4,0
2,386	-66,3	5,0
2,3865	-64,9	5,2
2,387	-66,8	4,7
2,3875	-71,2	3,8
2,388	-77,2	2,5
2,3885	-83,1	1,1
2,389	-86,9	-0,1
2,3895	-87,2	-0,8
2,39	-84,8	-0,8
2,3905	-81,6	-0,3
2,391	-79,3	0,0
2,3915	-78,2	0,1
2,392	-78,6	-0,3
2,3925	-81,0	-1,1
2,393	-85,9	-2,4
2,3935	-92,6	-4,2
2,394	-98,5	-5,8
2,3945	-101,3	-6,8
2,395	-100,4	-6,9
2,3955	-97,0	-6,1
2,396	-92,4	-4,2
2,3965	-87,0	-1,6
2,397	-81,5	1,0
2,3975	-77,3	2,5
2,398	-75,8	2,6
2,3985	-76,8	1,8
2,399	-78,8	0,9
2,3995	-80,7	0,3
2,4	-82,1	-0,1
2,4005	-82,8	0,1
2,401	-82,2	0,8
2,4015	-80,2	1,9
2,402	-77,9	3,0
2,4025	-77,2	3,7
2,403	-79,4	3,4
2,4035	-84,2	2,2
2,404	-90,6	0,2
2,4045	-97,8	-2,3
2,405	-105,3	-4,9
2,4055	-110,9	-7,0
2,406	-112,5	-8,0
2,4065	-109,2	-7,7
2,407	-102,6	-6,7
2,4075	-95,3	-5,7
2,408	-89,1	-5,5
2,4085	-84,5	-6,0
2,409	-81,9	-7,4
2,4095	-81,6	-9,2
2,41	-83,3	-11,0
2,4105	-85,8	-12,3
2,411	-86,5	-12,8
2,4115	-84,3	-12,2
2,412	-79,1	-11,0
2,4125	-72,0	-9,5
2,413	-64,2	-7,7
2,4135	-57,0	-5,9
2,414	-52,8	-4,7
2,4145	-53,2	-4,9
2,415	-57,6	-6,1
2,4155	-64,0	-7,4
2,416	-69,9	-7,9
2,4165	-74,5	-7,3
2,417	-77,4	-5,9
2,4175	-77,7	-3,9
2,418	-75,1	-1,2
2,4185	-70,2	1,9
2,419	-64,8	4,6
2,4195	-61,2	5,9
2,42	-60,3	5,5
2,4205	-62,4	3,6
2,421	-67,0	1,1
2,4215	-73,2	-1,3
2,422	-79,3	-2,8
2,4225	-83,0	-2,4
2,423	-83,2	-0,6
2,4235	-80,5	2,0
2,424	-77,3	3,9
2,4245	-75,0	4,6
2,425	-74,2	4,0
2,4255	-75,0	2,4
2,426	-77,6	0,2
2,4265	-81,9	-2,5
2,427	-86,6	-5,3
2,4275	-89,6	-7,5
2,428	-89,4	-8,6
2,4285	-86,0	-8,1
2,429	-80,3	-6,1
2,4295	-73,2	-3,1
2,43	-65,9	0,4
2,4305	-60,2	3,2
2,431	-57,8	4,2
2,4315	-58,9	3,1
2,432	-61,7	0,8
2,4325	-64,0	-1,3
2,433	-64,7	-2,5
2,4335	-63,8	-2,7
2,434	-61,1	-2,0
2,4345	-56,3	-0,6
2,435	-49,3	1,3
2,4355	-41,9	3,1
2,436	-36,1	4,3
2,4365	-33,3	4,5
2,437	-33,2	3,7
2,4375	-35,1	2,1
2,438	-38,3	-0,3
2,4385	-42,4	-2,7
2,439	-46,3	-4,6
2,4395	-48,4	-5,2
2,44	-48,2	-4,5
2,4405	-46,7	-3,3
2,441	-45,5	-2,4
2,4415	-45,3	-2,1
2,442	-46,4	-2,8
2,4425	-49,4	-4,2
2,443	-54,8	-6,2
2,4435	-62,2	-8,4
2,444	-69,8	-10,0
2,4445	-75,7	-10,4
2,445	-79,0	-9,5
2,4455	-80,2	-7,6
2,446	-79,8	-5,3
2,4465	-78,2	-3,0
2,447	-76,6	-0,8
2,4475	-77,3	0,7
2,448	-81,0	0,9
2,4485	-86,4	-0,2
2,449	-90,9	-1,8
2,4495	-93,1	-3,2
2,45	-93,3	-3,7
2,4505	-91,3	-3,4
2,451	-86,3	-2,3
2,4515	-78,1	-1,0
2,452	-67,8	0,4
2,4525	-58,0	1,4
2,453	-50,8	1,7
2,4535	-46,6	1,1
2,454	-44,3	-0,0
2,4545	-43,4	-1,7
2,455	-43,1	-3,6
2,4555	-42,5	-5,3
2,456	-40,2	-5,8
2,4565	-36,1	-4,9
2,457	-31,4	-2,9
2,4575	-28,2	-0,9
2,458	-27,3	0,5
2,4585	-28,3	1,2
2,459	-31,0	0,8
2,4595	-35,7	-0,6
2,46	-42,2	-2,6
2,4605	-49,2	-4,5
2,461	-54,4	-5,1
2,4615	-56,5	-4,2
2,462	-55,9	-1,8
2,4625	-53,7	1,4
2,463	-50,7	4,9
2,4635	-47,9	7,9
2,464	-47,2	9,5
2,4645	-50,0	9,2
2,465	-55,6	7,4
2,4655	-61,4	5,0
2,466	-65,1	2,7
2,4665	-65,8	0,7
2,467	-64,0	-0,8
2,4675	-59,5	-1,8
2,468	-52,3	-2,0
2,4685	-43,4	-1,6
2,469	-34,8	-1,1
2,4695	-28,7	-1,0
2,47	-26,5	-1,5
2,4705	-28,6	-2,3
2,471	-34,7	-2,7
2,4715	-43,7	-2,7
2,472	-53,2	-2,0
2,4725	-60,0	-0,7
2,473	-61,9	0,9
2,4735	-59,7	2,4
2,474	-55,7	3,2
2,4745	-52,2	3,3
2,475	-49,9	3,0
2,4755	-49,2	2,2
2,476	-50,5	1,0
2,4765	-54,2	-0,3
2,477	-59,7	-1,4
2,4775	-64,9	-1,5
2,478	-67,9	-0,2
2,4785	-68,2	2,3
2,479	-66,0	4,9
2,4795	-61,8	7,2
2,48	-56,2	8,7
2,4805	-50,9	9,4
2,481	-48,1	9,0
2,4815	-48,6	7,6
2,482	-51,0	5,9
2,4825	-53,4	4,6
2,483	-54,8	4,1
2,4835	-55,6	4,2
2,484	-55,4	4,7
2,4845	-53,4	5,5
2,485	-49,5	6,6
2,4855	-44,6	7,7
2,486	-40,4	8,2
2,4865	-38,4	7,9
2,487	-38,7	7,0
2,4875	-41,4	5,8
2,488	-46,5	4,4
2,4885	-53,4	3,0
2,489	-60,1	1,6
2,4895	-63,6	0,7
2,49	-63,1	0,5
2,4905	-59,5	1,1
2,491	-55,2	1,9
2,4915	-51,3	2,6
2,492	-48,6	2,8
2,4925	-48,0	2,3
2,493	-50,1	0,8
2,4935	-54,2	-1,7
2,494	-58,5	-4,3
2,4945	-60,9	-6,3
2,495	-60,3	-7,1
2,4955	-57,2	-6,7
2,496	-51,9	-5,3
2,4965	-45,2	-3,0
2,497	-38,6	-0,5
2,4975	-34,4	1,6
2,498	-34,1	2,7
2,4985	-36,7	2,8
2,499	-39,9	2,2
2,4995	-42,0	1,4
2,5	-42,7	0,8
2,5005	-41,8	0,8
2,501	-38,7	1,9
2,5015	-33,5	4,0
2,502	-27,7	6,5
2,5025	-23,7	8,4
2,503	-23,4	9,0
2,5035	-26,5	8,5
2,504	-32,0	7,4
2,5045	-38,5	6,2
2,505	-45,2	5,2
2,5055	-50,4	4,7
2,506	-52,5	5,2
2,5065	-50,8	6,5
2,507	-46,4	8,1
2,5075	-41,7	9,0
2,508	-38,1	8,8
2,5085	-36,3	7,6
2,509	-36,8	5,9
2,5095	-39,8	4,4
2,51	-44,7	3,2
2,5105	-50,2	2,8
2,511	-53,6	3,1
2,5115	-53,7	3,8
2,512	-50,2	4,5
2,5125	-44,2	5,2
2,513	-36,8	5,9
2,5135	-29,4	6,9
2,514	-24,1	8,0
2,5145	-23,1	8,6
2,515	-26,3	8,6
2,5155	-31,8	8,2
2,516	-37,3	7,6
2,5165	-41,5	6,7
2,517	-43,9	5,6
2,5175	-43,7	4,8
2,518	-40,3	4,7
2,5185	-34,1	5,2
2,519	-27,2	5,6
2,5195	-21,8	5,7
2,52	-19,6	5,3
2,5205	-20,5	4,8
2,521	-23,8	4,1
2,5215	-28,3	2,9
2,522	-32,0	1,7
2,5225	-32,6	1,0
2,523	-29,0	1,3
2,5235	-22,5	2,4
2,524	-15,6	3,4
2,5245	-10,6	3,9
2,525	-7,7	3,6
2,5255	-7,2	2,6
2,526	-9,1	1,0
2,5265	-13,3	-0,9
2,527	-19,0	-2,6
2,5275	-24,3	-3,7
2,528	-27,8	-3,9
2,5285	-28,9	-3,1
2,529	-28,2	-1,5
2,5295	-26,4	1,1
2,53	-24,5	4,3
2,5305	-24,4	7,4
2,531	-28,1	9,8
2,5315	-35,8	11,5
2,532	-45,6	13,0
2,5325	-55,2	14,3
2,533	-62,9	15,2
2,5335	-68,3	15,4
2,534	-70,3	15,1
2,5345	-67,9	14,8
2,535	-61,4	14,8
2,5355	-53,1	14,7
2,536	-46,2	14,0
2,5365	-42,6	12,6
2,537	-42,3	10,7
2,5375	-44,7	8,6
2,538	-48,5	6,7
2,5385	-52,7	5,3
2,539	-54,8	4,8
2,5395	-52,8	5,3
2,54	-46,6	6,7
2,5405	-38,4	8,4
2,541	-31,3	10,2
2,5415	-26,9	11,8
2,542	-25,7	12,6
2,5425	-27,7	12,5
2,543	-32,8	11,3
2,5435	-39,9	9,1
2,544	-46,8	6,7
2,5445	-50,9	4,9
2,545	-51,7	4,3
2,5455	-49,8	5,0
2,546	-46,3	6,8
2,5465	-42,0	9,8
2,547	-37,6	13,4
2,5475	-35,3	16,3
2,548	-36,3	17,3
2,5485	-40,0	16,4
2,549	-44,5	14,7
2,5495	-48,1	13,3
2,55	-50,4	12,6
2,5505	-51,2	12,8
2,551	-49,5	13,8
2,5515	-45,0	15,4
2,552	-38,7	16,9
2,5525	-33,1	17,6
2,553	-30,0	17,2
2,5535	-29,5	15,8
2,554	-30,7	13,8
2,5545	-32,8	11,4
2,555	-35,2	9,3
2,5555	-36,8	7,8
2,556	-35,5	7,4
2,5565	-31,2	8,3
2,557	-25,3	10,0
2,5575	-20,1	11,9
2,558	-17,3	13,7
2,5585	-17,4	14,9
2,559	-20,3	15,3
2,5595	-26,0	14,7
2,56	-33,4	12,8
2,5605	-40,6	10,2
2,561	-45,0	7,8
2,5615	-45,4	6,5
2,562	-42,3	6,7
2,5625	-36,6	8,0
2,563	-29,3	9,8
2,5635	-21,4	11,6
2,564	-15,3	12,5
2,5645	-12,9	12,1
2,565	-13,9	10,7
2,5655	-16,5	8,8
2,566	-18,5	7,3
2,5665	-19,3	6,2
2,567	-18,9	5,8
2,5675	-17,2	6,5
2,568	-13,7	8,5
2,5685	-8,8	11,2
2,569	-4,5	13,4
2,5695	-2,3	14,5
2,57	-3,0	14,4
2,5705	-5,7	13,6
2,571	-9,8	12,4
2,5715	-15,2	10,8
2,572	-20,8	9,6
2,5725	-24,9	9,9
2,573	-26,0	12,4
2,5735	-24,6	16,2
2,574	-21,9	20,1
2,5745	-19,6	23,1
2,575	-18,5	25,0
2,5755	-19,6	25,8
2,576	-24,0	25,3
2,5765	-31,9	23,7
2,577	-41,6	21,1
2,5775	-49,5	18,3
2,578	-52,4	16,4
2,5785	-49,8	15,9
2,579	-43,0	16,9
2,5795	-34,4	19,4
2,58	-26,1	22,9
2,5805	-20,3	26,3
2,581	-19,0	28,4
2,5815	-21,9	28,2
2,582	-26,6	25,9
2,5825	-30,0	22,7
2,583	-30,6	19,6
2,5835	-28,5	17,2
2,584	-24,2	16,3
2,5845	-17,8	16,8
2,585	-9,6	18,7
2,5855	-1,0	20,8
2,586	5,4	22,2
2,5865	8,3	22,3
2,587	7,3	21,3
2,5875	3,4	19,4
2,588	-2,5	16,8
2,5885	-9,3	14,1
2,589	-15,3	12,1
2,5895	-18,4	11,4
2,59	-18,5	12,2
2,5905	-16,2	13,9
2,591	-12,5	15,8
2,5915	-7,8	17,5
2,592	-3,0	19,0
2,5925	0,1	19,8
2,593	0,9	19,8
2,5935	-1,3	19,1
2,594	-6,2	17,7
2,5945	-11,8	16,1
2,595	-15,9	14,8
2,5955	-16,5	14,3
2,596	-13,5	14,6
2,5965	-8,0	15,4
2,597	-1,5	16,5
2,5975	3,1	17,0
2,598	3,9	16,6
2,5985	1,4	15,5
2,599	-2,4	14,7
2,5995	-5,3	14,9
2,6	-6,9	16,4
2,6005	-7,1	18,5
2,601	-4,4	21,0
2,6015	2,0	23,5
2,602	10,3	25,3
2,6025	16,6	25,6
2,603	18,3	24,3
2,6035	16,4	22,2
2,604	12,7	20,0
2,6045	8,1	18,1
2,605	3,0	16,7
2,6055	-1,1	15,8
2,606	-2,4	15,7
2,6065	-0,2	16,3
2,607	4,2	16,7
2,6075	8,5	16,6
2,608	11,6	16,2
2,6085	13,4	15,8
2,609	13,5	15,4
2,6095	11,2	14,4
2,61	6,5	12,6
2,6105	0,8	10,5
2,611	-3,4	8,9
2,6115	-4,7	8,4
2,612	-2,9	9,3
2,6125	1,3	11,2
2,613	7,3	13,8
2,6135	13,8	16,4
2,614	18,8	18,6
2,6145	20,1	19,5
2,615	17,9	19,1
2,6155	13,7	17,9
2,616	9,3	16,7
2,6165	5,5	16,0
2,617	2,4	15,7
2,6175	1,0	15,7
2,618	2,5	15,9
2,6185	7,0	16,3
2,619	12,2	16,6
2,6195	14,7	16,6
2,62	13,1	16,3
2,6205	8,1	15,7
2,621	1,3	14,8
2,6215	-5,6	13,9
2,622	-11,3	12,9
2,6225	-14,0	12,5
2,623	-12,7	13,1
2,6235	-8,6	14,2
2,624	-3,6	15,0
2,6245	0,7	15,0
2,625	3,8	14,4
2,6255	5,7	13,6
2,626	5,9	12,6
2,6265	4,2	11,5
2,627	0,9	10,5
2,6275	-1,8	9,8
2,628	-2,2	9,6
2,6285	0,3	9,9
2,629	5,2	10,4
2,6295	11,7	11,1
2,63	19,2	11,6
2,6305	25,8	11,6
2,631	29,2	10,5
2,6315	28,5	8,5
2,632	25,0	6,2
2,6325	21,1	4,3
2,633	17,9	2,8
2,6335	15,5	1,7
2,634	13,9	1,0
2,6345	13,3	1,2
2,635	13,9	2,5
2,6355	15,6	4,5
2,636	16,8	6,7
2,6365	16,3	8,5
2,637	12,9	9,7
2,6375	6,4	10,5
2,638	-3,2	11,4
2,6385	-15,1	13,2
2,639	-26,2	16,0
2,6395	-33,2	19,4
2,64	-35,2	22,4
2,6405	-34,1	24,4
2,641	-32,9	25,4
2,6415	-32,9	25,7
2,642	-34,0	25,4
2,6425	-36,3	24,5
2,643	-39,5	22,7
2,6435	-43,0	20,2
2,644	-45,2	17,8
2,6445	-44,1	15,9
2,645	-39,1	14,6
2,6455	-31,5	13,9
2,646	-22,9	13,7
2,6465	-14,3	14,0
2,647	-6,6	14,4
2,6475	-1,4	14,0
2,648	0,8	12,7
2,6485	0,8	10,9
2,649	0,8	9,3
2,6495	2,5	8,2
2,65	6,3	7,5
2,6505	11,9	7,3
2,651	19,7	7,8
2,6515	29,5	8,9
2,652	40,5	10,3
2,6525	50,0	11,6
2,653	55,8	12,3
2,6535	57,0	12,5
2,654	54,1	12,4
2,6545	48,3	12,3
2,655	40,7	12,3
2,6555	33,0	12,5
2,656	27,5	13,4
2,6565	24,8	15,1
2,657	24,0	17,4
2,6575	23,2	19,7
2,658	21,3	21,5
2,6585	17,8	22,7
2,659	12,2	23,3
2,6595	4,3	22,8
2,66	-5,0	21,4
2,6605	-13,6	19,4
2,661	-18,8	17,7
2,6615	-19,1	16,8
2,662	-15,2	16,9
2,6625	-8,6	17,4
2,663	-0,6	18,0
2,6635	7,5	18,4
2,664	13,2	18,2
2,6645	14,9	17,2
2,665	12,7	15,3
2,6655	9,0	12,9
2,666	5,9	10,6
2,6665	4,5	8,9
2,667	5,0	8,0
2,6675	7,7	8,1
2,668	13,1	9,0
2,6685	21,3	10,3
2,669	30,2	11,4
2,6695	36,9	11,7
2,67	39,6	11,1
2,6705	38,0	10,0
2,671	33,0	8,6
2,6715	25,6	7,0
2,672	17,7	5,7
2,6725	12,0	5,3
2,673	10,3	6,2
2,6735	12,0	7,9
2,674	14,8	10,0
2,6745	16,5	12,1
2,675	16,8	13,8
2,6755	16,0	14,8
2,676	14,2	14,8
2,6765	11,4	13,8
2,677	8,0	12,3
2,6775	5,4	11,4
2,678	4,8	11,6
2,6785	6,6	13,0
2,679	10,4	15,2
2,6795	15,9	17,7
2,68	22,3	20,0
2,6805	27,7	21,4
2,681	30,3	21,3
2,6815	29,8	19,7
2,682	27,2	17,4
2,6825	24,6	15,5
2,683	22,9	14,4
2,6835	22,0	14,3
2,684	22,4	15,1
2,6845	24,4	16,9
2,685	28,0	19,3
2,6855	31,8	21,5
2,686	34,3	22,8
2,6865	34,8	22,8
2,687	33,6	21,9
2,6875	31,0	20,4
2,688	27,1	18,7
2,6885	22,3	17,0
2,689	18,4	16,0
2,6895	16,9	16,2
2,69	18,0	17,5
2,6905	20,4	19,2
2,691	22,5	20,2
2,6915	23,7	20,4
2,692	24,0	19,7
2,6925	23,0	18,3
2,693	20,2	16,3
2,6935	15,8	13,8
2,694	11,6	11,5
2,6945	9,7	10,0
2,695	11,3	9,5
2,6955	15,9	9,5
2,696	22,3	9,6
2,6965	29,5	9,6
2,697	36,3	9,5
2,6975	40,9	8,9
2,698	41,8	7,8
2,6985	39,6	6,3
2,699	36,3	4,9
2,6995	33,8	4,0
2,7	32,8	3,7
2,7005	33,3	4,0
2,701	36,1	4,8
2,7015	41,3	6,1
2,702	48,1	7,6
2,7025	53,9	9,1
2,703	56,1	10,6
2,7035	53,9	12,1
2,704	48,2	13,3
2,7045	40,5	13,6
2,705	32,3	13,0
2,7055	25,2	11,8
2,706	21,4	11,0
2,7065	21,6	11,1
2,707	24,6	11,7
2,7075	28,1	12,3
2,708	30,8	12,7
2,7085	32,2	13,0
2,709	32,4	13,0
2,7095	31,3	12,3
2,71	28,8	10,7
2,7105	25,3	8,8
2,711	22,5	7,6
2,7115	21,3	7,3
2,712	21,9	7,9
2,7125	23,8	8,7
2,713	26,3	9,0
2,7135	29,3	8,7
2,714	31,6	7,4
2,7145	32,2	5,3
2,715	30,8	3,3
2,7155	28,6	2,3
2,716	27,3	2,8
2,7165	27,2	4,1
2,717	28,4	5,5
2,7175	31,0	6,6
2,718	35,4	7,7
2,7185	41,2	9,2
2,719	46,6	11,1
2,7195	49,3	12,9
2,72	47,7	14,3
2,7205	41,8	15,7
2,721	32,5	16,9
2,7215	21,6	17,8
2,722	11,5	18,1
2,7225	4,9	18,1
2,723	3,4	18,0
2,7235	6,2	17,8
2,724	10,6	17,3
2,7245	14,8	16,3
2,725	18,4	15,2
2,7255	21,0	14,2
2,726	21,6	12,9
2,7265	19,6	11,1
2,727	15,7	8,9
2,7275	12,3	7,1
2,728	11,4	6,1
2,7285	14,2	6,2
2,729	20,0	7,1
2,7295	27,9	8,5
2,73	36,3	9,9
2,7305	43,1	10,9
2,731	45,9	10,8
2,7315	44,4	9,5
2,732	40,3	8,1
2,7325	36,5	7,4
2,733	34,4	7,9
2,7335	34,2	9,3
2,734	35,9	11,3
2,7345	39,8	13,8
2,735	45,9	16,5
2,7355	52,9	19,0
2,736	58,6	20,5
2,7365	61,5	20,8
2,737	61,8	20,3
2,7375	60,4	19,5
2,738	57,8	18,4
2,7385	54,7	17,4
2,739	52,4	16,8
2,7395	52,6	16,7
2,74	55,5	17,2
2,7405	59,7	17,9
2,741	63,4	18,4
2,7415	65,8	18,6
2,742	66,8	18,3
2,7425	65,5	17,5
2,743	61,3	16,3
2,7435	54,6	14,9
2,744	46,7	13,5
2,7445	39,3	12,5
2,745	33,4	12,2
2,7455	29,4	12,3
2,746	28,1	12,8
2,7465	29,4	13,5
2,747	32,4	14,2
2,7475	34,8	14,3
2,748	34,5	13,5
2,7485	31,8	12,1
2,749	28,4	10,6
2,7495	25,9	9,5
2,75	24,4	9,1
2,7505	24,1	9,6
2,751	25,9	11,0
2,7515	30,2	12,9
2,752	36,2	14,9
2,7525	41,9	16,1
2,753	45,8	15,8
2,7535	47,3	14,1
2,754	47,3	11,5
2,7545	46,0	8,9
2,755	44,1	6,8
2,7555	42,6	5,4
2,756	43,3	5,1
2,7565	46,6	6,0
2,757	51,8	7,7
2,7575	56,8	9,7
2,758	60,5	11,6
2,7585	62,4	12,9
2,759	62,4	13,6
2,7595	60,4	13,4
2,76	56,6	12,6
2,7605	52,6	11,4
2,761	50,6	10,3
2,7615	51,7	9,7
2,762	55,7	9,8
2,7625	61,3	10,9
2,763	67,0	12,7
2,7635	71,7	14,6
2,764	73,4	16,0
2,7645	70,9	16,2
2,765	64,2	15,4
2,7655	54,8	14,5
2,766	45,0	14,3
2,7665	36,2	14,8
2,767	29,5	16,0
2,7675	26,6	17,4
2,768	28,4	18,4
2,7685	34,9	18,5
2,769	43,5	17,5
2,7695	50,8	15,4
2,77	54,8	13,0
2,7705	55,4	10,9
2,771	53,3	9,4
2,7715	49,4	8,3
2,772	44,8	7,7
2,7725	41,5	7,7
2,773	41,3	8,5
2,7735	44,2	9,9
2,774	48,2	11,7
2,7745	51,3	13,3
2,775	53,2	14,5
2,7755	53,8	14,8
2,776	52,3	13,9
2,7765	48,4	12,0
2,777	42,3	9,9
2,7775	36,1	8,5
2,778	31,7	8,4
2,7785	30,1	9,1
2,779	31,3	10,4
2,7795	35,5	11,9
2,78	42,2	13,6
2,7805	49,7	15,3
2,781	55,2	16,6
2,7815	57,0	17,0
2,782	55,9	16,7
2,7825	53,4	16,2
2,783	50,7	15,6
2,7835	48,4	14,9
2,784	47,5	14,5
2,7845	49,4	14,9
2,785	54,4	16,2
2,7855	61,2	17,8
2,786	66,9	19,1
2,7865	69,0	19,7
2,787	67,1	19,4
2,7875	61,7	18,4
2,788	54,1	16,7
2,7885	45,8	14,6
2,789	39,3	12,6
2,7895	36,5	11,4
2,79	37,3	11,2
2,7905	39,5	11,5
2,791	40,5	11,8
2,7915	39,3	11,9
2,792	36,8	11,8
2,7925	33,3	11,5
2,793	29,3	10,8
2,7935	25,0	9,5
2,794	21,4	7,7
2,7945	19,8	6,0
2,795	20,9	4,5
2,7955	24,7	3,6
2,796	31,1	3,3
2,7965	39,6	3,9
2,797	48,7	5,4
2,7975	55,8	7,0
2,798	58,9	8,0
2,7985	57,9	8,5
2,799	54,3	9,2
2,7995	50,0	10,6
2,8	46,0	12,6
2,8005	43,5	14,4
2,801	44,3	15,6
2,8015	48,7	16,2
2,802	55,3	16,6
2,8025	61,1	16,5
2,803	63,8	15,8
2,8035	62,6	14,5
2,804	58,1	12,8
2,8045	50,9	11,4
2,805	42,3	10,6
2,8055	33,9	10,8
2,806	28,2	11,9
2,8065	26,1	13,5
2,807	26,7	14,6
2,8075	27,9	14,9
2,808	28,8	14,6
2,8085	29,2	14,0
2,809	29,0	13,2
2,8095	27,3	11,9
2,81	23,7	10,0
2,8105	18,9	8,0
2,811	14,9	6,7
2,8115	13,5	6,4
2,812	15,0	6,9
2,8125	18,8	7,8
2,813	24,3	8,7
2,8135	30,7	9,5
2,814	36,3	9,7
2,8145	39,2	9,3
2,815	39,2	8,2
2,8155	37,6	6,8
2,816	36,1	5,5
2,8165	35,5	4,7
2,817	36,2	4,1
2,8175	38,8	4,2
2,818	44,1	5,0
2,8185	51,5	6,6
2,819	59,5	8,4
2,8195	65,3	9,8
2,82	67,6	10,5
2,8205	66,4	10,5
2,821	62,3	9,8
2,8215	56,0	8,6
2,822	49,2	7,4
2,8225	44,1	6,9
2,823	42,4	7,3
2,8235	43,8	8,1
2,824	46,3	8,5
2,8245	48,4	8,5
2,825	49,3	8,3
2,8255	48,5	7,8
2,826	45,3	6,9
2,8265	39,4	5,4
2,827	32,2	3,5
2,8275	26,4	1,9
2,828	24,2	1,2
2,8285	26,0	1,7
2,829	30,7	3,3
2,8295	37,3	5,5
2,83	44,7	7,8
2,8305	51,2	9,3
2,831	54,6	9,6
2,8315	54,1	8,5
2,832	50,9	6,7
2,8325	46,9	5,3
2,833	43,4	5,0
2,8335	40,3	6,3
2,834	37,8	8,7
2,8345	36,2	12,0
2,835	35,8	15,6
2,8355	36,1	18,6
2,836	35,5	20,1
2,8365	33,1	19,5
2,837	28,9	17,3
2,8375	23,8	14,3
2,838	18,7	11,3
2,8385	14,3	8,6
2,839	12,2	6,9
2,8395	13,8	6,4
2,84	19,1	6,9
2,8405	25,9	7,8
2,841	31,8	8,7
2,8415	35,3	9,0
2,842	36,2	8,6
2,8425	34,2	7,4
2,843	29,6	5,2
2,8435	23,6	2,5
2,844	18,1	-0,1
2,8445	15,4	-1,8
2,845	16,3	-2,4
2,8455	19,7	-1,7
2,846	24,7	-0,2
2,8465	30,4	1,7
2,847	35,8	3,2
2,8475	39,0	3,7
2,848	38,9	2,8
2,8485	36,5	1,2
2,849	33,6	-0,2
2,8495	32,2	-1,0
2,85	32,7	-1,3
2,8505	35,4	-1,3
2,851	41,0	-0,8
2,8515	49,6	0,5
2,852	60,4	2,7
2,8525	70,9	4,8
2,853	78,5	6,0
2,8535	81,7	6,1
2,854	80,6	5,4
2,8545	76,5	4,4
2,855	70,9	3,3
2,8555	65,9	2,6
2,856	63,6	2,6
2,8565	64,5	3,5
2,857	67,1	5,0
2,8575	69,3	6,3
2,858	69,8	6,7
2,8585	69,1	6,0
2,859	67,4	4,3
2,8595	63,8	2,0
2,86	57,6	-0,5
2,8605	49,5	-2,6
2,861	41,8	-3,3
2,8615	36,8	-2,7
2,862	35,2	-0,9
2,8625	36,4	1,1
2,863	39,4	3,0
2,8635	43,2	4,5
2,864	45,4	5,3
2,8645	43,8	5,6
2,865	38,3	6,0
2,8655	31,0	6,6
2,866	24,4	7,1
2,8665	19,6	7,0
2,867	17,0	6,0
2,8675	17,0	4,9
2,868	20,0	4,3
2,8685	25,4	4,4
2,869	31,1	5,2
2,8695	34,4	5,8
2,87	33,9	6,2
2,8705	30,1	6,2
2,871	24,6	5,3
2,8715	19,2	3,6
2,872	15,3	1,1
2,8725	14,5	-1,3
2,873	17,5	-3,0
2,8735	23,4	-3,7
2,874	30,1	-3,7
2,8745	35,4	-3,3
2,875	38,8	-2,7
2,8755	39,6	-2,1
2,876	37,2	-2,0
2,8765	31,3	-2,9
2,877	22,8	-4,8
2,8775	14,8	-6,8
2,878	10,2	-8,3
2,8785	10,3	-8,8
2,879	14,4	-8,3
2,8795	21,3	-6,5
2,88	29,7	-3,6
2,8805	37,7	-0,2
2,881	43,2	2,9
2,8815	45,3	4,8
2,882	45,2	5,4
2,8825	44,8	5,3
2,883	45,3	4,9
2,8835	46,7	4,6
2,884	48,9	4,3
2,8845	52,8	4,3
2,885	58,8	4,7
2,8855	65,5	5,3
2,886	70,5	5,7
2,8865	71,8	5,7
2,887	69,5	5,1
2,8875	64,8	3,8
2,888	59,0	1,8
2,8885	53,2	-0,4
2,889	48,7	-2,2
2,8895	47,0	-2,7
2,89	47,9	-1,8
2,8905	49,5	-0,6
2,891	49,8	0,1
2,8915	48,4	0,1
2,892	45,5	-0,5
2,8925	41,1	-1,7
2,893	34,9	-3,7
2,8935	27,5	-6,3
2,894	20,6	-8,8
2,8945	16,0	-10,3
2,895	14,3	-10,0
2,8955	15,0	-8,1
2,896	17,3	-5,1
2,8965	20,7	-1,8
2,897	24,3	0,8
2,8975	26,4	1,8
2,898	25,5	1,1
2,8985	22,4	-0,9
2,899	19,2	-3,3
2,8995	17,9	-5,3
2,9	19,0	-6,7
2,9005	22,5	-7,3
2,901	28,6	-6,9
2,9015	36,9	-5,5
2,902	46,5	-3,6
2,9025	55,1	-1,8
2,903	60,7	-1,2
2,9035	62,8	-1,8
2,904	61,6	-3,3
2,9045	57,8	-5,0
2,905	52,2	-6,4
2,9055	46,3	-7,0
2,906	42,8	-6,6
2,9065	43,2	-5,3
2,907	46,8	-3,4
2,9075	51,7	-1,5
2,908	56,1	0,3
2,9085	59,0	1,6
2,909	59,5	2,1
2,9095	56,3	1,4
2,91	49,3	-0,4
2,9105	40,6	-2,6
2,911	33,4	-4,0
2,9115	29,5	-4,3
2,912	28,8	-3,7
2,9125	30,5	-2,5
2,913	33,8	-0,9
2,9135	37,9	0,8
2,914	40,9	1,9
2,9145	40,5	1,6
2,915	36,1	-0,3
2,9155	29,7	-3,1
2,916	24,1	-5,7
2,9165	21,0	-7,6
2,917	20,7	-8,2
2,9175	23,1	-7,4
2,918	28,4	-5,6
2,9185	35,9	-3,3
2,919	43,5	-1,5
2,9195	48,8	-0,8
2,92	50,5	-1,2
2,9205	48,8	-2,4
2,921	44,3	-3,7
2,9215	37,7	-4,8
2,922	30,6	-5,7
2,9225	25,9	-6,1
2,923	25,9	-6,0
2,9235	30,1	-5,7
2,924	35,7	-5,4
2,9245	40,0	-5,5
2,925	42,2	-5,9
2,9255	42,0	-6,8
2,926	39,3	-8,2
2,9265	34,0	-9,9
2,927	27,1	-11,6
2,9275	21,0	-12,8
2,928	18,3	-13,1
2,9285	19,7	-12,8
2,929	25,0	-12,0
2,9295	33,2	-11,0
2,93	42,7	-10,1
2,9305	50,8	-9,5
2,931	54,9	-9,8
2,9315	54,1	-11,2
2,932	49,8	-12,9
2,9325	44,9	-14,0
2,933	41,5	-14,0
2,9335	40,3	-13,1
2,934	41,4	-11,8
2,9345	45,2	-10,7
2,935	51,5	-9,8
2,9355	58,9	-9,2
2,936	64,8	-9,3
2,9365	67,3	-10,0
2,937	66,5	-11,0
2,9375	62,9	-11,8
2,938	57,0	-12,2
2,9385	49,4	-12,2
2,939	41,6	-11,9
2,9395	35,8	-11,1
2,94	32,5	-9,3
2,9405	30,6	-6,6
2,941	28,5	-3,5
2,9415	26,1	-0,8
2,942	23,7	0,7
2,9425	20,6	0,8
2,943	15,6	-0,2
2,9435	8,0	-1,6
2,944	-0,7	-2,3
2,9445	-8,0	-1,7
2,945	-12,8	0,5
2,9455	-14,8	3,8
2,946	-14,2	7,4
2,9465	-10,7	10,6
2,947	-5,5	12,5
2,9475	-1,1	12,6
2,948	0,7	10,8
2,9485	0,2	8,0
2,949	-0,8	5,1
2,9495	-0,8	2,9
2,95	0,2	1,8
2,9505	2,1	1,5
2,951	5,6	2,0
2,9515	11,4	2,9
2,952	19,1	4,0
2,9525	26,7	4,7
2,953	32,0	4,8
2,9535	33,8	4,0
2,954	32,3	2,7
2,9545	27,8	1,0
2,955	21,2	-0,9
2,9555	14,0	-2,6
2,956	8,7	-3,4
2,9565	6,8	-3,3
2,957	7,8	-2,6
2,9575	9,6	-2,2
2,958	10,7	-2,2
2,9585	10,7	-2,8
2,959	9,3	-3,8
2,9595	6,5	-5,3
2,96	2,6	-7,2
2,9605	-0,9	-9,0
2,961	-1,8	-10,3
2,9615	1,2	-10,7
2,962	7,5	-10,2
2,9625	16,2	-8,9
2,963	26,4	-7,1
2,9635	36,8	-5,2
2,964	45,7	-3,9
2,9645	50,9	-3,8
2,965	52,5	-4,6
2,9655	51,7	-5,3
2,966	50,4	-5,2
2,9665	49,8	-4,2
2,967	50,8	-2,8
2,9675	54,1	-1,3
2,968	60,5	0,5
2,9685	68,8	2,6
2,969	76,4	4,7
2,9695	80,5	6,4
2,97	79,9	7,3
2,9705	74,9	7,5
2,971	66,5	6,9
2,9715	55,3	5,6
2,972	42,3	4,0
2,9725	29,8	2,8
2,973	19,8	2,6
2,9735	13,3	3,2
2,974	9,4	4,0
2,9745	7,2	4,6
2,975	5,8	5,1
2,9755	4,8	5,7
2,976	2,8	6,2
2,9765	-1,1	6,2
2,977	-6,2	5,7
2,9775	-10,3	5,0
2,978	-11,1	4,5
2,9785	-8,3	4,4
2,979	-2,3	4,9
2,9795	5,9	6,2
2,98	15,4	8,2
2,9805	24,2	10,1
2,981	29,6	11,2
2,9815	30,4	10,9
2,982	28,1	9,6
2,9825	25,0	7,9
2,983	22,8	6,6
2,9835	22,0	5,8
2,984	22,7	5,6
2,9845	25,8	6,1
2,985	31,7	7,2
2,9855	39,5	8,2
2,986	47,0	8,3
2,9865	52,5	7,1
2,987	55,4	4,6
2,9875	55,5	1,3
2,988	53,4	-2,2
2,9885	50,0	-5,3
2,989	47,0	-7,4
2,9895	46,6	-8,2
2,99	49,3	-7,9
2,9905	53,8	-7,1
2,991	58,4	-6,3
2,9915	61,9	-6,0
2,992	63,9	-6,1
2,9925	63,9	-6,5
2,993	61,2	-7,0
2,9935	55,9	-7,7
2,994	49,6	-8,2
2,9945	44,6	-8,2
2,995	42,1	-7,2
2,9955	41,8	-5,2
2,996	43,0	-1,9
2,9965	45,1	2,7
2,997	47,0	7,9
2,9975	46,8	12,4
2,998	43,3	14,8
2,9985	36,6	15,4
2,999	28,3	14,9
2,9995	20,7	14,2
3	14,9	13,4
3,0005	11,8	12,4
3,001	12,5	11,6
3,0015	17,3	11,1
3,002	24,8	11,0
3,0025	32,8	10,6
3,003	38,8	9,6
3,0035	41,7	7,6
3,004	41,8	5,0
3,0045	39,8	2,3
3,005	36,9	-0,1
3,0055	34,5	-1,4
3,006	34,8	-1,4
3,0065	38,6	-0,4
3,007	44,6	1,1
3,0075	51,0	2,1
3,008	55,9	2,3
3,0085	59,2	1,8
3,009	60,2	0,8
3,0095	58,3	-0,6
3,01	53,6	-2,1
3,0105	47,3	-3,3
3,011	42,0	-3,8
3,0115	39,5	-3,2
3,012	39,9	-1,6
3,0125	42,8	0,6
3,013	47,6	2,9
3,0135	53,3	5,1
3,014	58,1	6,6
3,0145	59,9	6,8
3,015	58,4	5,3
3,0155	55,1	3,0
3,016	52,1	0,8
3,0165	50,4	-0,5
3,017	50,5	-0,8
3,0175	52,8	-0,0
3,018	57,7	1,4
3,0185	64,4	3,3
3,019	70,2	4,8
3,0195	72,1	5,2
3,02	69,0	4,1
3,0205	62,2	1,7
3,021	53,5	-1,4
3,0215	44,9	-4,6
3,022	37,9	-7,5
3,0225	34,2	-9,5
3,023	35,0	-10,4
3,0235	39,6	-10,3
3,024	46,2	-10,1
3,0245	52,4	-10,2
3,025	57,5	-10,6
3,0255	60,8	-11,3
3,026	61,6	-12,2
3,0265	59,6	-13,6
3,027	55,5	-15,2
3,0275	51,8	-16,1
3,028	50,4	-16,0
3,0285	51,9	-14,3
3,029	55,1	-11,2
3,0295	58,8	-6,7
3,03	61,7	-1,6
3,0305	62,7	2,9
3,031	60,0	5,7
3,0315	53,3	6,6
3,032	43,9	6,4
3,0325	34,3	5,8
3,033	26,5	5,3
3,0335	20,8	4,8
3,034	17,6	4,8
3,0345	18,0	5,5
3,035	22,1	6,6
3,0355	28,7	7,7
3,036	34,9	8,1
3,0365	38,6	7,6
3,037	38,8	6,3
3,0375	36,1	4,3
3,038	31,4	1,9
3,0385	26,1	-0,4
3,039	22,3	-2,4
3,0395	22,1	-3,5
3,04	25,8	-3,6
3,0405	31,9	-3,3
3,041	38,1	-3,0
3,0415	42,8	-3,1
3,042	45,5	-3,7
3,0425	45,6	-4,7
3,043	42,8	-6,1
3,0435	37,3	-7,9
3,044	31,2	-9,7
3,0445	27,5	-10,7
3,045	27,5	-10,7
3,0455	30,9	-9,9
3,046	36,8	-8,4
3,0465	44,0	-6,6
3,047	50,9	-5,1
3,0475	55,1	-4,5
3,048	54,9	-5,2
3,0485	51,2	-6,7
3,049	46,3	-8,2
3,0495	42,3	-9,3
3,05	39,8	-10,1
3,0505	39,2	-10,4
3,051	40,8	-10,3
3,0515	45,1	-9,7
3,052	50,8	-8,9
3,0525	55,7	-8,3
3,053	57,6	-8,3
3,0535	55,8	-8,9
3,054	51,1	-10,3
3,0545	44,5	-12,1
3,055	37,0	-14,1
3,0555	30,1	-15,4
3,056	25,8	-15,4
3,0565	25,1	-14,1
3,057	27,0	-12,1
3,0575	29,6	-10,1
3,058	31,6	-8,4
3,0585	32,7	-7,2
3,059	32,3	-6,9
3,0595	29,6	-7,6
3,06	24,3	-9,0
3,0605	17,6	-10,3
3,061	11,9	-10,7
3,0615	9,4	-10,2
3,062	10,5	-9,4
3,0625	14,6	-8,7
3,063	20,6	-8,0
3,0635	27,2	-7,3
3,064	31,9	-6,8
3,0645	32,5	-7,0
3,065	28,6	-7,8
3,0655	22,1	-8,8
3,066	16,2	-9,8
3,0665	12,7	-10,8
3,067	12,3	-11,9
3,0675	14,8	-12,4
3,068	19,9	-11,7
3,0685	26,5	-9,9
3,069	32,7	-7,7
3,0695	36,5	-6,2
3,07	37,0	-6,0
3,0705	34,8	-7,0
3,071	30,7	-8,9
3,0715	25,5	-11,1
3,072	20,5	-12,9
3,0725	18,1	-13,8
3,073	20,2	-13,6
3,0735	26,4	-12,7
3,074	34,1	-11,7
3,0745	40,6	-11,1
3,075	44,3	-11,0
3,0755	45,1	-11,3
3,076	42,9	-12,4
3,0765	38,4	-13,9
3,077	32,9	-15,3
3,0775	28,3	-15,8
3,078	26,2	-14,9
3,0785	26,4	-13,1
3,079	28,3	-11,3
3,0795	31,2	-10,0
3,08	34,5	-9,1
3,0805	37,3	-8,2
3,081	37,8	-7,4
3,0815	35,3	-6,8
3,082	30,8	-6,1
3,0825	26,5	-5,3
3,083	23,9	-4,7
3,0835	23,2	-4,1
3,084	24,6	-3,5
3,0845	28,0	-2,6
3,085	32,8	-1,3
3,0855	37,3	0,4
3,086	39,1	1,8
3,0865	36,6	2,4
3,087	30,0	1,9
3,0875	20,3	0,6
3,088	8,9	-0,8
3,0885	-2,0	-1,8
3,089	-10,1	-2,2
3,0895	-13,0	-1,9
3,09	-10,3	-0,9
3,0905	-3,7	0,4
3,091	3,9	1,6
3,0915	10,4	2,4
3,092	14,6	2,8
3,0925	15,9	2,7
3,093	13,8	1,8
3,0935	9,0	0,3
3,094	4,0	-1,1
3,0945	1,4	-2,0
3,095	2,5	-2,2
3,0955	7,0	-1,8
3,096	13,9	-1,0
3,0965	22,2	0,3
3,097	30,6	1,4
3,0975	36,3	1,9
3,098	37,7	1,3
3,0985	35,0	-0,2
3,099	30,8	-1,5
3,0995	27,4	-1,9
3,1	25,8	-1,6
3,1005	26,6	-0,7
3,101	30,2	0,4
3,1015	36,8	2,0
3,102	45,1	3,7
3,1025	52,1	5,0
3,103	55,1	5,4
3,1035	53,7	5,1
3,104	48,6	4,3
3,1045	41,0	3,1
3,105	32,1	1,8
3,1055	23,8	0,6
3,106	18,4	-0,3
3,1065	16,9	-0,5
3,107	18,4	-0,2
3,1075	20,8	0,3
3,108	22,6	0,7
3,1085	23,2	0,8
3,109	22,6	0,5
3,1095	20,4	-0,4
3,11	16,5	-1,9
3,1105	11,9	-3,4
3,111	8,4	-4,5
3,1115	7,3	-4,9
3,112	8,4	-4,5
3,1125	11,6	-3,3
3,113	17,1	-1,2
3,1135	24,4	1,5
3,114	31,7	4,2
3,1145	35,9	6,1
3,115	35,4	7,1
3,1155	31,0	6,9
3,116	25,3	5,8
3,1165	20,4	4,1
3,117	17,7	2,5
3,1175	17,8	1,8
3,118	21,0	2,7
3,1185	26,4	4,6
3,119	31,9	6,7
3,1195	34,9	7,8
3,12	34,0	7,7
3,1205	29,4	6,7
3,121	21,8	5,2
3,1215	12,3	3,8
3,122	2,7	2,8
3,1225	-4,5	2,6
3,123	-7,1	3,4
3,1235	-4,8	4,7
3,124	0,6	5,8
3,1245	6,7	6,2
3,125	12,3	6,3
3,1255	17,0	6,4
3,126	19,8	6,9
3,1265	19,5	7,7
3,127	16,3	8,6
3,1275	11,8	9,5
3,128	8,5	10,8
3,1285	7,2	12,5
3,129	7,7	14,5
3,1295	9,8	16,3
3,13	13,7	18,0
3,1305	18,7	19,2
3,131	22,9	19,4
3,1315	25,2	18,5
3,132	25,8	16,6
3,1325	26,3	14,5
3,133	27,4	12,7
3,1335	29,0	11,4
3,134	31,0	10,9
3,1345	34,4	11,3
3,135	39,6	12,6
3,1355	45,8	14,3
3,136	50,8	15,6
3,1365	53,3	16,2
3,137	52,8	15,9
3,1375	49,5	14,8
3,138	44,0	13,4
3,1385	37,0	12,0
3,139	30,7	11,2
3,1395	27,3	11,3
3,14	27,4	12,2
3,1405	30,1	13,0
3,141	33,6	13,5
3,1415	36,9	13,4
3,142	39,8	13,1
3,1425	41,8	12,2
3,143	41,6	10,7
3,1435	39,4	8,8
3,144	36,7	6,9
3,1445	35,8	5,9
3,145	38,1	6,2
3,1455	42,7	7,6
3,146	48,8	9,9
3,1465	55,7	12,4
3,147	62,5	14,4
3,1475	67,6	15,0
3,148	69,2	13,9
3,1485	67,7	11,6
3,149	64,7	9,0
3,1495	62,3	6,5
3,15	61,3	4,3
3,1505	61,4	2,8
3,151	63,1	2,3
3,1515	66,9	3,4
3,152	72,3	5,6
3,1525	77,4	7,7
3,153	79,8	8,8
3,1535	78,8	8,5
3,154	74,6	7,0
3,1545	68,0	4,7
3,155	60,3	2,3
3,1555	53,1	0,7
3,156	49,0	1,0
3,1565	48,8	3,4
3,157	51,5	7,0
3,1575	54,5	10,3
3,158	55,8	12,6
3,1585	54,9	13,8
3,159	51,6	13,8
3,1595	46,0	12,9
3,16	38,6	11,0
3,1605	30,8	8,7
3,161	25,1	6,6
3,1615	23,2	5,2
3,162	25,4	4,1
3,1625	30,7	3,3
3,163	38,0	2,6
3,1635	45,8	2,3
3,164	51,6	1,9
3,1645	53,8	1,2
3,165	52,1	0,3
3,1655	48,8	-0,1
3,166	46,0	0,4
3,1665	44,7	1,5
3,167	44,3	2,1
3,1675	44,8	2,0
3,168	47,0	1,3
3,1685	51,8	0,5
3,169	58,2	-0,7
3,1695	63,6	-2,2
3,17	66,3	-4,2
3,1705	66,0	-6,5
3,171	63,1	-8,8
3,1715	58,7	-10,9
3,172	54,1	-12,7
3,1725	51,5	-13,6
3,173	52,4	-13,5
3,1735	56,4	-12,9
3,174	61,3	-12,5
3,1745	64,7	-12,7
3,175	65,9	-13,5
3,1755	64,9	-14,4
3,176	61,7	-15,5
3,1765	56,1	-16,8
3,177	49,0	-18,1
3,1775	42,5	-18,9
3,178	38,7	-18,8
3,1785	37,9	-17,7
3,179	39,4	-15,8
3,1795	42,6	-13,4
3,18	46,6	-10,8
3,1805	50,0	-8,6
3,181	50,6	-8,1
3,1815	47,8	-9,8
3,182	43,1	-13,0
3,1825	39,3	-16,5
3,183	37,9	-18,8
3,1835	38,9	-19,6
3,184	41,6	-18,6
3,1845	45,8	-16,1
3,185	51,4	-12,6
3,1855	57,0	-9,0
3,186	60,6	-6,7
3,1865	60,9	-6,5
3,187	57,8	-8,4
3,1875	52,2	-11,8
3,188	44,9	-16,1
3,1885	37,1	-20,3
3,189	30,8	-23,8
3,1895	28,3	-25,4
3,19	30,0	-25,0
3,1905	34,0	-23,5
3,191	37,9	-21,7
3,1915	39,9	-20,3
3,192	39,8	-19,4
3,1925	37,5	-19,3
3,193	32,7	-20,0
3,1935	25,9	-21,2
3,194	19,0	-22,1
3,1945	14,3	-22,3
3,195	13,1	-21,5
3,1955	14,6	-20,0
3,196	17,4	-17,9
3,1965	20,7	-15,7
3,197	23,9	-14,1
3,1975	25,6	-13,8
3,198	24,2	-15,0
3,1985	20,1	-17,4
3,199	15,0	-20,2
3,1995	11,2	-22,3
3,2	9,3	-23,2
3,2005	9,4	-22,8
3,201	11,7	-21,4
3,2015	16,3	-19,5
3,202	22,9	-17,8
3,2025	29,4	-17,4
3,203	33,4	-18,6
3,2035	34,1	-21,4
3,204	31,8	-25,0
3,2045	27,8	-28,6
3,205	23,0	-31,6
3,2055	19,4	-33,4
3,206	18,8	-33,7
3,2065	22,5	-32,4
3,207	29,4	-30,4
3,2075	37,6	-28,6
3,208	44,6	-27,5
3,2085	49,2	-27,3
3,209	50,6	-27,5
3,2095	48,3	-28,3
3,21	42,8	-29,6
3,2105	35,7	-31,3
3,211	29,5	-32,6
3,2115	26,1	-32,7
3,212	25,5	-31,3
3,2125	27,2	-28,8
3,213	30,9	-25,7
3,2135	36,2	-22,9
3,214	41,3	-21,4
3,2145	43,8	-21,7
3,215	42,3	-23,2
3,2155	37,8	-24,8
3,216	32,7	-25,5
3,2165	28,8	-25,6
3,217	26,8	-25,7
3,2175	27,4	-26,0
3,218	30,8	-26,2
3,2185	36,6	-26,1
3,219	42,6	-25,9
3,2195	46,6	-25,9
3,22	47,5	-26,2
3,2205	45,3	-26,6
3,221	40,4	-27,3
3,2215	33,5	-28,9
3,222	25,8	-31,2
3,2225	19,6	-33,2
3,223	17,0	-33,8
3,2235	18,3	-32,8
3,224	21,7	-30,6
3,2245	24,5	-28,3
3,225	25,3	-26,5
3,2255	23,9	-25,5
3,226	19,7	-25,6
3,2265	12,8	-26,8
3,227	4,2	-28,5
3,2275	-3,4	-29,8
3,228	-7,2	-30,1
3,2285	-6,2	-29,4
3,229	-1,2	-28,3
3,2295	6,3	-26,8
3,23	14,7	-25,4
3,2305	22,1	-24,3
3,231	26,0	-23,8
3,2315	25,1	-24,2
3,232	20,6	-24,9
3,2325	15,0	-25,6
3,233	10,9	-26,0
3,2335	9,2	-26,1
3,234	10,3	-26,2
3,2345	14,9	-25,9
3,235	23,1	-25,4
3,2355	33,6	-24,8
3,236	43,5	-24,8
3,2365	49,8	-25,5
3,237	51,6	-26,9
3,2375	49,0	-28,6
3,238	43,0	-30,3
3,2385	34,9	-32,1
3,239	27,2	-33,6
3,2395	22,2	-34,4
3,24	20,5	-34,4
3,2405	20,7	-33,8
3,241	21,1	-33,2
3,2415	20,4	-32,5
3,242	18,8	-31,9
3,2425	15,6	-31,5
3,243	10,5	-31,5
3,2435	3,9	-32,2
3,244	-2,7	-32,9
3,2445	-7,0	-33,3
3,245	-8,0	-32,9
3,2455	-6,3	-31,7
3,246	-3,0	-30,0
3,2465	1,3	-27,8
3,247	5,7	-25,5
3,2475	8,4	-23,8
3,248	8,0	-23,2
3,2485	4,8	-23,7
3,249	0,7	-24,8
3,2495	-2,1	-25,6
3,25	-3,1	-25,9
3,2505	-2,4	-25,6
3,251	0,1	-24,8
3,2515	4,5	-23,4
3,252	10,0	-21,3
3,2525	14,8	-18,8
3,253	17,1	-16,4
3,2535	16,4	-14,5
3,254	12,5	-13,8
3,2545	5,9	-14,3
3,255	-2,5	-16,1
3,2555	-10,3	-18,2
3,256	-14,5	-19,6
3,2565	-13,4	-19,9
3,257	-8,1	-19,1
3,2575	-1,0	-17,7
3,258	5,4	-16,0
3,2585	10,1	-14,4
3,259	12,6	-13,2
3,2595	12,5	-13,1
3,26	9,2	-14,3
3,2605	3,5	-16,4
3,261	-2,5	-18,3
3,2615	-6,4	-19,4
3,262	-7,5	-19,4
3,2625	-6,1	-18,4
3,263	-3,0	-17,1
3,2635	1,3	-15,9
3,264	5,3	-15,5
3,2645	6,8	-16,1
3,265	5,2	-17,5
3,2655	1,3	-19,0
3,266	-3,3	-20,0
3,2665	-7,4	-20,3
3,267	-10,9	-20,1
3,2675	-12,6	-19,6
3,268	-11,1	-18,5
3,2685	-5,8	-16,9
3,269	1,8	-15,3
3,2695	9,0	-14,5
3,27	13,3	-14,7
3,2705	14,0	-15,8
3,271	11,7	-17,3
3,2715	7,3	-18,8
3,272	2,1	-20,1
3,2725	-1,8	-20,8
3,273	-2,3	-20,8
3,2735	1,0	-20,3
3,274	6,8	-19,6
3,2745	12,7	-18,9
3,275	17,4	-18,1
3,2755	20,3	-17,0
3,276	21,1	-15,7
3,2765	19,3	-14,3
3,277	15,3	-12,7
3,2775	10,4	-11,1
3,278	6,2	-9,3
3,2785	3,7	-7,6
3,279	3,4	-5,9
3,2795	5,2	-4,2
3,28	8,2	-2,1
3,2805	10,5	0,5
3,281	9,6	3,0
3,2815	4,5	4,6
3,282	-3,2	4,9
3,2825	-10,6	3,8
3,283	-15,5	1,9
3,2835	-17,8	-0,3
3,284	-17,8	-2,1
3,2845	-15,5	-2,6
3,285	-10,8	-1,4
3,2855	-4,7	0,8
3,286	0,8	3,0
3,2865	3,8	3,8
3,287	4,4	3,3
3,2875	3,1	1,7
3,288	0,6	-0,2
3,2885	-2,4	-1,9
3,289	-4,5	-2,8
3,2895	-4,4	-2,9
3,29	-2,7	-2,3
3,2905	-1,3	-1,4
3,291	-1,9	-0,9
3,2915	-4,7	-1,1
3,292	-8,3	-2,0
3,2925	-12,7	-3,4
3,293	-18,5	-5,2
3,2935	-26,0	-7,4
3,294	-33,7	-9,3
3,2945	-38,8	-10,3
3,295	-39,3	-10,1
3,2955	-34,9	-8,7
3,296	-26,6	-6,5
3,2965	-16,0	-4,2
3,297	-5,1	-2,1
3,2975	3,6	-0,7
3,298	8,2	0,0
3,2985	8,8	0,2
3,299	7,1	0,3
3,2995	5,2	0,6
3,3	4,2	1,2
3,3005	4,6	2,0
3,301	7,0	3,2
3,3015	11,8	4,9
3,302	18,3	6,9
3,3025	24,1	8,8
3,303	26,7	10,2
3,3035	25,5	10,9
3,304	21,3	10,7
3,3045	15,6	9,7
3,305	9,1	7,6
3,3055	3,4	5,0
3,306	0,2	2,9
3,3065	0,3	2,1
3,307	2,3	2,6
3,3075	3,7	3,9
3,308	3,0	5,6
3,3085	0,2	7,3
3,309	-4,1	8,6
3,3095	-9,6	8,6
3,31	-16,2	6,9
3,3105	-23,0	4,3
3,311	-28,1	2,0
3,3115	-29,7	0,9
3,312	-27,3	1,0
3,3125	-21,6	1,7
3,313	-14,2	2,7
3,3135	-7,0	3,8
3,314	-2,0	4,6
3,3145	-0,7	4,8
3,315	-2,7	4,1
3,3155	-6,3	3,1
3,316	-9,3	2,3
3,3165	-10,6	1,6
3,317	-10,1	1,3
3,3175	-7,7	1,6
3,318	-3,0	2,7
3,3185	4,0	4,6
3,319	11,7	6,8
3,3195	18,1	8,2
3,32	22,1	8,2
3,3205	23,8	6,5
3,321	23,3	3,7
3,3215	20,9	0,5
3,322	17,2	-2,4
3,3225	14,2	-4,0
3,323	13,8	-3,7
3,3235	16,2	-2,1
3,324	19,8	-0,4
3,3245	23,0	0,6
3,325	24,9	0,3
3,3255	25,1	-0,7
3,326	22,8	-1,9
3,3265	17,3	-2,8
3,327	9,4	-3,0
3,3275	1,3	-2,5
3,328	-5,0	-1,1
3,3285	-8,3	1,0
3,329	-8,7	3,2
3,3295	-6,7	5,2
3,33	-3,1	6,8
3,3305	0,5	8,0
3,331	2,0	8,6
3,3315	0,4	8,5
3,332	-3,1	7,9
3,3325	-6,2	7,2
3,333	-7,2	6,8
3,3335	-5,7	6,4
3,334	-1,8	6,3
3,3345	4,8	6,6
3,335	13,5	7,7
3,3355	22,8	9,3
3,336	29,6	10,5
3,3365	32,2	10,4
3,337	30,6	9,0
3,3375	25,8	6,8
3,338	18,8	4,2
3,3385	11,1	1,5
3,339	4,3	-0,6
3,3395	0,5	-1,2
3,34	0,4	-0,3
3,3405	2,5	1,7
3,341	4,8	3,5
3,3415	5,9	4,5
3,342	5,9	4,4
3,3425	4,4	2,9
3,343	0,8	0,3
3,3435	-4,8	-2,8
3,344	-10,9	-5,3
3,3445	-15,1	-6,6
3,345	-15,9	-6,2
3,3455	-13,2	-5,0
3,346	-7,6	-3,5
3,3465	-0,1	-2,2
3,347	8,0	-1,0
3,3475	14,3	-0,3
3,348	16,9	-0,6
3,3485	16,2	-1,7
3,349	14,3	-3,3
3,3495	13,5	-4,9
3,35	14,4	-6,2
3,3505	16,7	-6,9
3,351	21,0	-6,9
3,3515	27,8	-5,8
3,352	36,8	-3,8
3,3525	45,9	-1,5
3,353	52,5	0,3
3,3535	55,4	1,3
3,354	54,6	1,3
3,3545	50,8	0,2
3,355	44,8	-1,5
3,3555	37,9	-3,1
3,356	32,9	-4,1
3,3565	31,6	-4,2
3,357	33,2	-3,6
3,3575	35,3	-2,7
3,358	35,8	-1,9
3,3585	33,8	-1,0
3,359	29,2	-0,3
3,3595	21,8	0,1
3,36	12,2	-0,2
3,3605	2,3	-1,3
3,361	-5,0	-3,1
3,3615	-8,2	-5,1
3,362	-7,5	-6,6
3,3625	-4,1	-7,3
3,363	0,8	-7,2
3,3635	6,6	-6,4
3,364	11,9	-5,5
3,3645	14,9	-5,3
3,365	15,1	-5,9
3,3655	13,3	-7,1
3,366	11,5	-8,1
3,3665	10,8	-8,5
3,367	11,2	-8,2
3,3675	13,3	-7,4
3,368	17,1	-6,1
3,3685	22,6	-4,7
3,369	28,2	-3,7
3,3695	31,7	-3,8
3,37	32,0	-4,8
3,3705	29,6	-6,5
3,371	24,9	-8,4
3,3715	18,3	-10,4
3,372	10,7	-12,1
3,3725	4,2	-12,8
3,373	0,9	-12,2
3,3735	1,6	-11,0
3,374	4,8	-9,9
3,3745	8,2	-9,4
3,375	10,6	-9,3
3,3755	11,6	-9,4
3,376	10,3	-9,5
3,3765	6,6	-10,0
3,377	1,1	-10,9
3,3775	-4,3	-11,8
3,378	-7,7	-12,3
3,3785	-8,3	-12,3
3,379	-6,4	-12,1
3,3795	-2,6	-11,9
3,38	2,8	-11,8
3,3805	8,8	-11,5
3,381	13,3	-11,1
3,3815	14,8	-10,8
3,382	13,9	-10,7
3,3825	12,0	-10,7
3,383	10,8	-10,9
3,3835	10,4	-11,3
3,384	11,3	-11,7
3,3845	14,1	-11,4
3,385	19,5	-10,3
3,3855	26,5	-8,5
3,386	32,4	-6,7
3,3865	34,9	-5,3
3,387	33,4	-4,7
3,3875	28,5	-5,0
3,388	21,3	-6,0
3,3885	12,8	-7,7
3,389	5,3	-9,3
3,3895	1,2	-10,5
3,39	1,8	-11,1
3,3905	5,9	-11,3
3,391	11,4	-11,3
3,3915	16,3	-11,5
3,392	19,4	-11,9
3,3925	19,4	-12,7
3,393	15,5	-13,8
3,3935	7,9	-14,9
3,394	-1,3	-15,3
3,3945	-9,1	-15,0
3,395	-13,2	-14,0
3,3955	-13,2	-13,0
3,396	-9,8	-12,1
3,3965	-4,4	-11,1
3,397	1,2	-10,0
3,3975	4,2	-9,0
3,398	2,6	-8,3
3,3985	-3,3	-8,2
3,399	-11,0	-8,7
3,3995	-17,3	-9,8
3,4	-21,0	-11,1
3,4005	-21,7	-12,3
3,401	-19,2	-13,0
3,4015	-13,6	-12,9
3,402	-5,6	-11,8
3,4025	2,5	-10,7
3,403	8,3	-10,2
3,4035	10,4	-10,8
3,404	8,9	-12,5
3,4045	4,4	-14,8
3,405	-1,8	-17,5
3,4055	-7,9	-19,9
3,406	-11,2	-21,2
3,4065	-10,2	-20,8
3,407	-6,0	-19,1
3,4075	-0,8	-16,9
3,408	3,8	-15,1
3,4085	7,1	-14,0
3,409	9,0	-13,4
3,4095	8,8	-13,1
3,41	5,7	-13,0
3,4105	0,2	-13,1
3,411	-5,3	-12,9
3,4115	-8,6	-12,4
3,412	-9,3	-11,6
3,4125	-8,3	-10,7
3,413	-6,1	-9,3
3,4135	-2,8	-7,6
3,414	0,6	-5,9
3,4145	2,5	-5,3
3,415	1,9	-5,9
3,4155	-0,0	-7,5
3,416	-1,4	-9,3
3,4165	-1,3	-10,5
3,417	0,2	-11,4
3,4175	3,1	-11,7
3,418	7,8	-11,4
3,4185	14,9	-10,2
3,419	22,9	-8,4
3,4195	29,5	-6,8
3,42	32,9	-6,1
3,4205	32,6	-6,4
3,421	29,3	-7,8
3,4215	24,1	-9,8
3,422	18,3	-11,5
3,4225	13,9	-12,2
3,423	13,1	-11,2
3,4235	15,8	-8,9
3,424	20,1	-6,4
3,4245	23,8	-4,5
3,425	25,8	-3,8
3,4255	25,7	-4,4
3,426	22,8	-5,8
3,4265	16,5	-7,8
3,427	7,4	-9,6
3,4275	-2,1	-10,8
3,428	-9,4	-11,0
3,4285	-13,2	-10,3
3,429	-13,4	-9,0
3,4295	-10,5	-7,4
3,43	-5,1	-6,0
3,4305	0,6	-5,0
3,431	3,7	-5,2
3,4315	2,5	-6,5
3,432	-2,0	-8,5
3,4325	-7,2	-10,2
3,433	-10,9	-11,0
3,4335	-12,3	-11,0
3,434	-11,4	-10,2
3,4345	-7,5	-8,5
3,435	-0,4	-6,2
3,4355	8,8	-3,9
3,436	17,5	-2,3
3,4365	23,1	-1,7
3,437	24,7	-1,8
3,4375	22,7	-2,0
3,438	18,1	-2,2
3,4385	12,1	-2,3
3,439	6,6	-2,3
3,4395	3,8	-1,8
3,44	4,3	-0,8
3,4405	6,7	0,2
3,441	8,9	0,5
3,4415	10,2	-0,1
3,442	11,4	-1,7
3,4425	12,6	-4,1
3,443	12,7	-7,1
3,4435	10,8	-10,3
3,444	7,7	-13,0
3,4445	5,6	-14,4
3,445	5,8	-14,2
3,4455	8,1	-12,7
3,446	11,7	-10,3
3,4465	15,8	-7,4
3,447	19,4	-4,5
3,4475	20,7	-2,5
3,448	18,1	-2,1
3,4485	11,8	-2,9
3,449	4,1	-4,1
3,4495	-2,6	-5,1
3,45	-6,8	-5,4
3,4505	-8,7	-5,3
3,451	-8,0	-4,8
3,4515	-4,4	-3,7
3,452	1,6	-2,1
3,4525	8,3	-0,1
3,453	13,6	1,6
3,4535	16,3	2,6
3,454	16,1	2,5
3,4545	13,3	1,5
3,455	8,7	-0,1
3,4555	4,0	-1,6
3,456	1,8	-2,5
3,4565	3,4	-2,5
3,457	8,1	-2,0
3,4575	13,7	-1,3
3,458	18,2	-0,5
3,4585	20,5	0,5
3,459	20,4	1,6
3,4595	17,3	2,4
3,46	11,3	2,4
3,4605	3,7	1,7
3,461	-3,1	0,7
3,4615	-7,4	0,1
3,462	-9,3	-0,1
3,4625	-8,8	-0,3
3,463	-6,3	-0,6
3,4635	-1,8	-0,9
3,464	3,1	-1,2
3,4645	6,0	-1,6
3,465	6,1	-2,4
3,4655	4,3	-3,4
3,466	2,3	-4,4
3,4665	1,4	-5,4
3,467	2,1	-6,4
3,4675	4,8	-7,0
3,468	9,9	-7,0
3,4685	17,3	-6,0
3,469	25,7	-4,2
3,4695	32,8	-2,0
3,47	37,1	0,1
3,4705	37,8	1,3
3,471	35,3	0,9
3,4715	30,3	-0,9
3,472	23,9	-3,5
3,4725	18,8	-5,8
3,473	16,8	-6,7
3,4735	17,9	-6,4
3,474	20,1	-5,3
3,4745	21,4	-4,1
3,475	21,0	-3,2
3,4755	18,6	-2,8
3,476	14,0	-3,2
3,4765	7,5	-4,6
3,477	0,2	-6,7
3,4775	-5,7	-8,6
3,478	-8,2	-9,8
3,4785	-7,0	-10,0
3,479	-3,3	-9,4
3,4795	2,2	-8,1
3,48	8,9	-6,5
3,4805	16,1	-5,3
3,481	21,6	-5,2
3,4815	23,5	-6,4
3,482	22,2	-8,8
3,4825	20,0	-11,4
3,483	19,1	-14,1
3,4835	20,2	-16,4
3,484	23,1	-18,2
3,4845	28,2	-18,9
3,485	35,5	-18,3
3,4855	44,1	-16,3
3,486	51,6	-13,8
3,4865	56,1	-11,8
3,487	56,8	-10,5
3,4875	54,0	-10,2
3,488	48,3	-10,7
3,4885	40,5	-11,7
3,489	32,8	-12,3
3,4895	27,9	-11,5
3,49	26,5	-9,3
3,4905	27,5	-6,6
3,491	28,8	-4,5
3,4915	29,0	-3,7
3,492	27,8	-4,2
3,4925	24,9	-5,7
3,493	19,9	-7,6
3,4935	13,1	-9,5
3,494	5,9	-10,8
3,4945	0,8	-11,1
3,495	-1,1	-10,3
3,4955	0,4	-9,1
3,496	4,8	-7,8
3,4965	11,1	-6,7
3,497	18,1	-6,0
3,4975	24,0	-6,1
3,498	27,4	-7,3
3,4985	28,3	-9,5
3,499	27,9	-12,0
3,4995	27,7	-14,4
3,5	27,9	-16,3
3,5005	28,8	-17,9
3,501	31,0	-18,6
3,5015	34,9	-18,3
3,502	40,2	-16,8
3,5025	44,2	-14,4
3,503	43,9	-11,9
3,5035	38,4	-10,2
3,504	28,6	-10,0
3,5045	16,3	-11,6
3,505	3,7	-14,7
3,5055	-6,8	-18,1
3,506	-12,8	-20,6
3,5065	-13,1	-21,2
3,507	-8,9	-20,2
3,5075	-3,1	-18,0
3,508	1,6	-15,2
3,5085	3,5	-12,2
3,509	2,1	-9,3
3,5095	-2,6	-7,3
3,51	-10,3	-6,8
3,5105	-19,7	-7,5
3,511	-28,7	-8,5
3,5115	-35,5	-9,0
3,512	-39,7	-9,0
3,5125	-41,6	-8,5
3,513	-41,2	-7,8
3,5135	-38,4	-6,8
3,514	-34,5	-5,8
3,5145	-32,0	-5,5
3,515	-32,3	-6,4
3,5155	-34,6	-8,4
3,516	-36,7	-11,0
3,5165	-36,6	-13,7
3,517	-34,3	-15,8
3,5175	-29,8	-16,9
3,518	-23,0	-16,6
3,5185	-13,9	-14,5
3,519	-3,8	-11,6
3,5195	5,2	-9,0
3,52	11,1	-7,5
3,5205	13,6	-7,5
3,521	12,6	-8,8
3,5215	8,4	-11,0
3,522	2,5	-13,3
3,5225	-2,5	-14,5
3,523	-4,6	-13,6
3,5235	-3,8	-10,9
3,524	-2,0	-7,5
3,5245	-0,9	-4,5
3,525	-0,8	-2,4
3,5255	-1,5	-1,5
3,526	-3,1	-1,5
3,5265	-5,8	-2,7
3,527	-9,2	-4,6
3,5275	-11,6	-6,6
3,528	-11,6	-7,7
3,5285	-9,4	-7,6
3,529	-6,1	-6,4
3,5295	-2,2	-4,4
3,53	2,6	-2,3
3,5305	7,6	-0,6
3,531	10,9	0,0
3,5315	11,0	-0,5
3,532	8,3	-1,6
3,5325	5,1	-2,7
3,533	3,1	-3,5
3,5335	2,5	-4,3
3,534	3,2	-4,8
3,5345	5,7	-4,8
3,535	10,5	-4,0
3,5355	16,7	-2,7
3,536	21,8	-1,2
3,5365	23,5	0,0
3,537	21,7	0,6
3,5375	17,2	0,4
3,538	10,8	-0,6
3,5385	3,5	-2,3
3,539	-2,7	-4,0
3,5395	-5,4	-5,0
3,54	-3,7	-4,7
3,5405	1,0	-3,6
3,541	5,9	-2,5
3,5415	9,0	-1,9
3,542	9,8	-1,6
3,5425	8,1	-1,5
3,543	3,9	-1,6
3,5435	-2,8	-1,9
3,544	-10,3	-2,4
3,5445	-15,9	-2,6
3,545	-17,7	-2,3
3,5455	-15,5	-1,8
3,546	-10,3	-1,0
3,5465	-3,0	0,1
3,547	5,3	1,4
3,5475	12,7	2,4
3,548	17,2	2,3
3,5485	18,3	1,0
3,549	16,6	-0,7
3,5495	13,7	-2,2
3,55	10,4	-3,1
3,5505	7,7	-3,5
3,551	7,1	-3,4
3,5515	9,6	-2,7
3,552	14,9	-1,6
3,5525	20,5	-0,7
3,553	23,6	-0,5
3,5535	23,0	-1,2
3,554	18,9	-2,2
3,5545	12,5	-3,4
3,555	4,9	-4,5
3,5555	-1,8	-5,5
3,556	-5,8	-5,7
3,5565	-5,9	-4,7
3,557	-3,1	-2,8
3,5575	0,7	-0,7
3,558	3,2	0,8
3,5585	4,0	1,6
3,559	3,1	1,5
3,5595	0,6	0,7
3,56	-3,4	-0,9
3,5605	-8,0	-2,6
3,561	-11,2	-3,5
3,5615	-11,5	-2,9
3,562	-8,8	-0,8
3,5625	-4,1	2,0
3,563	1,9	5,0
3,5635	8,2	7,4
3,564	13,2	8,8
3,5645	14,9	9,0
3,565	12,4	8,2
3,5655	7,1	7,0
3,566	1,3	6,3
3,5665	-3,3	6,1
3,567	-6,0	6,2
3,5675	-6,3	6,4
3,568	-3,5	7,1
3,5685	2,2	8,3
3,569	9,2	9,3
3,5695	15,0	9,6
3,57	18,4	8,7
3,5705	19,6	7,0
3,571	19,5	5,1
3,5715	18,3	3,1
3,572	16,5	1,3
3,5725	16,0	0,8
3,573	18,1	2,1
3,5735	21,4	4,8
3,574	23,2	7,9
3,5745	22,5	10,2
3,575	20,7	11,3
3,5755	19,1	11,2
3,576	17,1	9,9
3,5765	14,0	7,4
3,577	9,8	4,2
3,5775	6,3	1,1
3,578	5,1	-0,8
3,5785	6,6	-0,9
3,579	10,1	1,3
3,5795	14,5	5,4
3,58	18,6	10,3
3,5805	21,3	14,8
3,581	21,6	17,3
3,5815	18,0	16,9
3,582	10,9	13,9
3,5825	2,5	10,2
3,583	-3,8	7,5
3,5835	-6,5	6,7
3,584	-5,6	7,4
3,5845	-1,4	9,1
3,585	5,8	11,2
3,5855	14,7	13,1
3,586	22,6	14,1
3,5865	27,4	13,8
3,587	28,3	12,3
3,5875	25,9	10,0
3,588	21,3	7,3
3,5885	15,7	4,8
3,589	10,6	2,8
3,5895	8,0	2,3
3,59	9,0	3,6
3,5905	12,7	5,7
3,591	17,2	7,8
