Interval=	0,0005 s
ExcelDateTime=	4,5902534258271422e+004	2/09/2025 12:49:19,914651
TimeFormat=	StartOfBlock
DateFormat=	
ChannelTitle=	Biceps	Triceps
Range=	1000,0 µV	1000,0 µV
0	-0,7	-2,7
0,0005	-8,3	-33,2
0,001	-31,0	-119,8
0,0015	-69,0	-257,2
0,002	-112,6	-400,0
0,0025	-148,1	-496,2
0,003	-169,1	-530,3
0,0035	-176,2	-513,5
0,004	-172,2	-459,0
0,0045	-160,1	-376,7
0,005	-141,3	-274,7
0,0055	-116,2	-163,1
0,006	-85,7	-52,0
0,0065	-51,3	51,6
0,007	-15,7	145,6
0,0075	18,1	232,5
0,008	48,3	315,8
0,0085	75,5	397,4
0,009	101,4	473,4
0,0095	126,6	535,3
0,01	148,7	574,3
0,0105	164,8	586,6
0,011	173,4	574,3
0,0115	175,3	542,1
0,012	172,0	492,8
0,0125	164,8	425,6
0,013	153,0	339,5
0,0135	135,8	238,1
0,014	113,2	128,8
0,0145	86,5	20,1
0,015	57,6	-82,9
0,0155	27,6	-178,9
0,016	-2,6	-268,7
0,0165	-32,4	-352,3
0,017	-60,9	-428,6
0,0175	-87,3	-494,3
0,018	-110,4	-543,6
0,0185	-128,8	-570,3
0,019	-141,4	-572,3
0,0195	-147,8	-553,0
0,02	-149,1	-516,5
0,0205	-146,3	-464,0
0,021	-139,0	-393,4
0,0215	-126,3	-304,0
0,022	-107,3	-200,3
0,0225	-82,9	-90,9
0,023	-54,5	15,6
0,0235	-24,0	114,5
0,024	6,7	205,4
0,0245	36,3	291,4
0,025	64,0	374,6
0,0255	89,4	453,4
0,026	112,4	520,5
0,0265	131,4	566,9
0,027	144,8	587,1
0,0275	151,5	581,8
0,028	151,9	555,8
0,0285	146,9	512,6
0,029	137,7	451,8
0,0295	124,3	371,8
0,03	106,5	274,4
0,0305	84,1	166,9
0,031	58,0	58,3
0,0315	29,8	-45,6
0,032	1,1	-143,6
0,0325	-27,3	-236,8
0,033	-54,7	-325,6
0,0335	-80,9	-408,3
0,034	-105,7	-481,3
0,0345	-128,4	-538,3
0,035	-147,9	-572,9
0,0355	-162,6	-581,5
0,036	-170,9	-566,4
0,0365	-172,6	-532,2
0,037	-168,3	-481,4
0,0375	-158,9	-413,0
0,038	-144,8	-326,0
0,0385	-127,1	-223,6
0,039	-109,7	-114,0
0,0395	-97,6	-5,9
0,04	-92,5	94,3
0,0405	-90,3	185,0
0,041	-84,6	268,8
0,0415	-70,2	349,7
0,042	-45,0	428,7
0,0425	-9,9	500,8
0,043	32,3	556,7
0,0435	76,8	588,1
0,044	118,6	592,7
0,0445	153,4	573,8
0,045	178,6	536,1
0,0455	192,7	480,6
0,046	195,1	405,3
0,0465	185,7	310,1
0,047	165,2	200,5
0,0475	135,8	86,7
0,048	100,8	-22,3
0,0485	63,4	-123,1
0,049	26,9	-216,5
0,0495	-7,3	-304,2
0,05	-39,6	-386,3
0,0505	-70,9	-460,6
0,051	-101,6	-521,9
0,0515	-130,4	-563,3
0,052	-154,9	-579,0
0,0525	-172,1	-569,1
0,053	-180,1	-538,6
0,0535	-178,5	-492,1
0,054	-168,5	-430,1
0,0545	-152,1	-351,1
0,055	-130,8	-256,0
0,0555	-105,4	-150,8
0,056	-77,1	-43,9
0,0565	-47,3	57,8
0,057	-17,8	151,0
0,0575	10,0	236,8
0,058	35,9	318,8
0,0585	60,7	399,2
0,059	84,9	474,9
0,0595	108,0	537,2
0,06	128,5	576,4
0,0605	144,8	588,4
0,061	155,6	575,7
0,0615	160,4	543,4
0,062	159,0	493,8
0,0625	150,8	425,8
0,063	135,4	338,4
0,0635	113,1	235,0
0,064	85,4	123,7
0,0645	54,8	13,5
0,065	23,8	-89,9
0,0655	-5,9	-185,5
0,066	-33,4	-274,6
0,0665	-58,8	-357,8
0,067	-82,6	-434,4
0,0675	-104,8	-500,8
0,068	-125,0	-550,4
0,0685	-142,1	-577,2
0,069	-155,2	-579,3
0,0695	-163,3	-560,0
0,07	-166,2	-523,7
0,0705	-163,7	-471,4
0,071	-156,3	-400,9
0,0715	-143,9	-311,7
0,072	-126,3	-207,9
0,0725	-103,9	-98,6
0,073	-79,0	7,7
0,0735	-56,6	105,8
0,074	-41,5	195,4
0,0745	-34,1	280,0
0,075	-29,4	362,3
0,0755	-21,6	441,0
0,076	-10,2	509,5
0,0765	-3,1	558,5
0,077	-10,2	582,0
0,0775	-33,9	580,1
0,078	-65,3	557,3
0,0785	-91,1	517,2
0,079	-103,1	459,6
0,0795	-101,2	382,5
0,08	-90,2	287,2
0,0805	-75,9	180,1
0,081	-61,8	70,2
0,0815	-47,7	-35,6
0,082	-33,3	-134,8
0,0825	-20,4	-228,5
0,083	-13,2	-317,1
0,0835	-15,3	-399,9
0,084	-27,2	-473,4
0,0845	-46,6	-531,3
0,085	-69,2	-566,7
0,0855	-90,4	-575,6
0,086	-107,2	-560,6
0,0865	-118,0	-527,0
0,087	-122,5	-478,0
0,0875	-120,8	-412,3
0,088	-112,4	-328,0
0,0885	-96,8	-228,0
0,089	-74,9	-120,2
0,0895	-48,6	-13,5
0,09	-20,7	85,9
0,0905	6,9	176,4
0,091	34,9	261,1
0,0915	65,8	343,4
0,092	101,3	424,1
0,0925	139,0	497,8
0,093	173,4	554,8
0,0935	198,8	587,0
0,094	212,8	592,1
0,0945	216,3	573,5
0,095	212,2	536,2
0,0955	202,8	482,0
0,096	189,2	409,7
0,0965	171,6	318,4
0,097	150,1	212,5
0,0975	124,5	100,6
0,098	95,8	-8,8
0,0985	65,3	-111,0
0,099	34,5	-205,9
0,0995	4,4	-294,3
0,1	-24,8	-376,4
0,1005	-52,7	-450,8
0,101	-78,8	-512,9
0,1015	-102,4	-556,3
0,102	-122,1	-575,5
0,1025	-136,6	-570,2
0,103	-144,9	-544,8
0,1035	-146,9	-503,3
0,104	-142,8	-445,5
0,1045	-132,9	-369,3
0,105	-117,4	-275,3
0,1055	-97,7	-169,4
0,106	-75,6	-60,6
0,1065	-52,5	43,6
0,107	-28,8	139,9
0,1075	-4,5	228,9
0,108	20,3	313,7
0,1085	46,1	396,1
0,109	72,8	473,2
0,1095	99,5	537,0
0,11	124,1	578,5
0,1105	144,1	593,3
0,111	157,8	583,3
0,1115	165,1	553,3
0,112	166,4	506,3
0,1125	162,0	441,6
0,113	151,5	357,6
0,1135	134,3	256,9
0,114	110,9	147,1
0,1145	82,9	37,1
0,115	52,3	-67,3
0,1155	21,1	-164,9
0,116	-9,6	-256,8
0,1165	-39,2	-343,2
0,117	-67,2	-422,8
0,1175	-93,5	-491,8
0,118	-117,5	-544,0
0,1185	-138,1	-573,4
0,119	-153,7	-577,5
0,1195	-163,0	-559,2
0,12	-165,9	-522,9
0,1205	-162,8	-470,4
0,121	-154,2	-400,0
0,1215	-139,7	-311,1
0,122	-119,4	-207,7
0,1225	-94,3	-98,2
0,123	-65,8	9,1
0,1235	-36,0	109,0
0,124	-6,6	201,2
0,1245	21,5	287,9
0,125	48,2	371,8
0,1255	73,8	451,7
0,126	98,5	520,8
0,1265	121,4	570,2
0,127	140,6	593,3
0,1275	153,9	589,3
0,128	160,5	562,6
0,1285	160,4	517,8
0,129	154,2	456,6
0,1295	142,5	378,1
0,13	125,3	283,3
0,1305	102,9	177,9
0,131	76,2	70,0
0,1315	47,0	-33,8
0,132	17,0	-131,6
0,1325	-12,9	-224,4
0,133	-42,3	-312,9
0,1335	-71,2	-395,7
0,134	-99,1	-468,8
0,1345	-125,1	-526,1
0,135	-147,9	-561,0
0,1355	-165,6	-570,0
0,136	-176,9	-555,3
0,1365	-181,5	-522,4
0,137	-180,2	-474,7
0,1375	-173,8	-411,5
0,138	-162,6	-331,1
0,1385	-145,6	-235,6
0,139	-123,0	-132,1
0,1395	-96,3	-29,2
0,14	-68,1	67,4
0,1405	-42,6	156,6
0,141	-24,9	241,2
0,1415	-17,2	324,6
0,142	-16,5	406,9
0,1425	-15,8	482,6
0,143	-9,3	541,6
0,1435	4,3	575,8
0,144	22,4	583,1
0,1445	42,2	567,2
0,145	61,4	533,3
0,1455	77,9	482,9
0,146	89,7	414,3
0,1465	94,5	326,5
0,147	91,8	223,7
0,1475	82,3	114,4
0,148	67,2	6,8
0,1485	47,7	-94,6
0,149	24,6	-190,0
0,1495	-1,3	-280,2
0,15	-28,8	-365,1
0,1505	-55,9	-442,2
0,151	-80,7	-506,8
0,1515	-101,7	-552,3
0,152	-118,3	-573,3
0,1525	-130,6	-570,0
0,153	-138,5	-546,7
0,1535	-142,3	-507,2
0,154	-142,2	-451,4
0,1545	-137,7	-377,2
0,155	-127,3	-284,9
0,1555	-109,8	-180,0
0,156	-85,7	-71,1
0,1565	-57,3	33,8
0,157	-27,6	130,7
0,1575	1,1	219,9
0,158	27,8	304,5
0,1585	52,9	386,6
0,159	77,2	464,1
0,1595	100,8	529,2
0,16	122,4	572,9
0,1605	140,3	590,4
0,161	153,0	583,0
0,1615	159,7	555,6
0,162	159,3	511,3
0,1625	151,2	449,3
0,163	135,3	368,6
0,1635	112,9	271,1
0,164	86,1	163,6
0,1645	56,5	54,3
0,165	25,3	-51,0
0,1655	-6,7	-150,4
0,166	-38,9	-244,0
0,1665	-71,1	-331,4
0,167	-102,4	-411,2
0,1675	-131,6	-480,1
0,168	-156,8	-532,7
0,1685	-175,8	-563,7
0,169	-186,8	-570,8
0,1695	-189,3	-556,7
0,17	-183,8	-525,0
0,1705	-171,3	-476,6
0,171	-153,0	-409,5
0,1715	-130,2	-322,4
0,172	-104,0	-219,5
0,1725	-75,6	-109,5
0,173	-45,8	-1,9
0,1735	-15,5	97,2
0,174	13,5	187,2
0,1745	39,4	271,1
0,175	61,5	352,3
0,1755	80,8	430,7
0,176	98,8	500,0
0,1765	115,8	550,9
0,177	130,4	576,7
0,1775	141,4	576,3
0,178	148,1	553,9
0,1785	150,3	513,6
0,179	147,8	456,2
0,1795	140,3	380,3
0,18	126,9	286,5
0,1805	107,3	180,4
0,181	82,4	70,6
0,1815	54,6	-35,7
0,182	26,1	-135,1
0,1825	-1,9	-227,6
0,183	-29,1	-313,9
0,1835	-55,8	-393,8
0,184	-81,8	-465,7
0,1845	-106,4	-524,7
0,185	-128,4	-564,0
0,1855	-145,7	-578,5
0,186	-156,3	-568,6
0,1865	-159,8	-538,9
0,187	-157,2	-493,0
0,1875	-149,4	-430,5
0,188	-137,1	-349,7
0,1885	-121,8	-252,6
0,189	-107,0	-146,1
0,1895	-95,9	-39,0
0,19	-88,1	62,2
0,1905	-79,4	155,3
0,191	-65,8	242,1
0,1915	-45,7	325,8
0,192	-19,4	407,3
0,1925	11,5	482,0
0,193	45,1	541,2
0,1935	78,6	576,5
0,194	109,6	585,6
0,1945	136,0	572,0
0,195	156,6	540,3
0,1955	170,4	492,0
0,196	176,3	424,9
0,1965	173,4	338,1
0,197	161,3	235,8
0,1975	140,6	125,9
0,198	113,1	16,7
0,1985	81,2	-88,0
0,199	47,2	-187,7
0,1995	12,9	-282,3
0,2	-20,1	-370,4
0,2005	-50,8	-449,2
0,201	-78,5	-514,5
0,2015	-103,0	-560,5
0,202	-123,6	-582,3
0,2025	-139,4	-579,5
0,203	-149,2	-556,7
0,2035	-152,5	-518,4
0,204	-149,2	-465,1
0,2045	-139,0	-393,9
0,205	-122,1	-304,0
0,2055	-99,1	-200,3
0,206	-71,6	-91,6
0,2065	-41,9	13,9
0,207	-12,3	111,9
0,2075	15,9	202,6
0,208	42,1	289,2
0,2085	66,9	373,7
0,209	90,9	454,0
0,2095	113,9	522,2
0,21	134,6	568,8
0,2105	151,0	588,3
0,211	161,3	581,7
0,2115	165,0	554,0
0,212	162,4	509,1
0,2125	154,3	446,6
0,213	140,6	365,2
0,2135	121,6	266,7
0,214	97,6	158,2
0,2145	69,9	48,5
0,215	40,2	-56,4
0,2155	9,9	-154,8
0,216	-20,4	-247,3
0,2165	-50,4	-334,3
0,217	-79,7	-415,0
0,2175	-107,8	-486,6
0,218	-133,8	-543,0
0,2185	-155,8	-576,9
0,219	-171,8	-584,5
0,2195	-180,3	-567,8
0,22	-181,6	-531,7
0,2205	-177,2	-479,5
0,221	-168,4	-410,9
0,2215	-155,2	-324,7
0,222	-136,7	-223,7
0,2225	-112,8	-115,5
0,223	-85,0	-8,6
0,2235	-55,4	91,0
0,224	-25,8	182,2
0,2245	3,0	267,5
0,225	31,4	350,2
0,2255	59,4	430,0
0,226	86,0	500,7
0,2265	109,9	553,0
0,227	129,3	579,9
0,2275	142,6	580,4
0,228	149,0	558,9
0,2285	148,9	519,6
0,229	143,1	463,3
0,2295	132,2	388,0
0,23	115,4	294,2
0,2305	91,7	187,7
0,231	61,5	77,8
0,2315	27,3	-28,0
0,232	-7,4	-126,4
0,2325	-40,2	-218,4
0,233	-70,0	-305,1
0,2335	-96,5	-386,5
0,234	-119,6	-460,2
0,2345	-139,1	-520,5
0,235	-154,3	-560,1
0,2355	-164,3	-573,8
0,236	-168,4	-563,2
0,2365	-166,9	-533,7
0,237	-160,3	-489,3
0,2375	-149,4	-429,5
0,238	-133,9	-351,8
0,2385	-113,6	-256,6
0,239	-88,7	-150,5
0,2395	-60,7	-42,9
0,24	-32,0	58,6
0,2405	-4,8	151,0
0,241	20,2	236,5
0,2415	43,3	318,9
0,242	65,9	399,8
0,2425	89,2	475,3
0,243	112,5	536,3
0,2435	133,7	573,8
0,244	150,0	584,1
0,2445	159,3	569,9
0,245	161,2	536,2
0,2455	157,0	485,1
0,246	148,1	416,0
0,2465	134,9	328,3
0,247	116,6	226,1
0,2475	92,8	117,4
0,248	64,4	10,0
0,2485	33,6	-91,6
0,249	2,5	-186,8
0,2495	-27,1	-276,3
0,25	-54,4	-359,9
0,2505	-79,5	-436,3
0,251	-102,5	-501,4
0,2515	-123,2	-548,4
0,252	-140,8	-571,1
0,2525	-154,3	-568,2
0,253	-163,3	-544,0
0,2535	-169,0	-503,0
0,254	-172,0	-446,7
0,2545	-171,8	-373,1
0,255	-168,4	-282,1
0,2555	-164,5	-178,7
0,256	-163,2	-71,0
0,2565	-164,2	33,1
0,257	-162,5	129,6
0,2575	-152,4	218,9
0,258	-130,8	304,0
0,2585	-97,5	387,3
0,259	-54,0	466,5
0,2595	-3,4	534,0
0,26	50,1	580,4
0,2605	101,7	600,0
0,261	146,7	593,0
0,2615	181,9	563,5
0,262	205,6	514,4
0,2625	217,0	446,2
0,263	215,4	358,5
0,2635	201,0	255,0
0,264	175,0	143,8
0,2645	140,6	33,7
0,265	101,6	-69,9
0,2655	61,3	-165,9
0,266	21,5	-255,5
0,2665	-17,0	-339,6
0,267	-54,3	-417,4
0,2675	-90,8	-485,4
0,268	-126,0	-537,7
0,2685	-157,9	-567,8
0,269	-183,4	-572,8
0,2695	-199,7	-555,5
0,27	-205,7	-521,5
0,2705	-202,4	-473,2
0,271	-191,9	-408,8
0,2715	-175,2	-326,3
0,272	-152,4	-228,0
0,2725	-124,0	-121,6
0,273	-91,7	-15,7
0,2735	-58,3	83,9
0,274	-26,3	175,8
0,2745	3,0	261,9
0,275	30,1	344,9
0,2755	56,3	424,7
0,276	82,4	496,0
0,2765	107,9	550,1
0,277	131,2	579,5
0,2775	150,8	582,5
0,278	165,4	563,1
0,2785	174,6	525,9
0,279	178,0	471,9
0,2795	175,6	399,4
0,28	166,7	308,6
0,2805	150,3	204,3
0,281	126,3	95,1
0,2815	96,4	-11,5
0,282	63,5	-112,5
0,2825	30,0	-208,1
0,283	-2,4	-298,9
0,2835	-32,7	-383,6
0,284	-60,4	-459,2
0,2845	-85,3	-520,6
0,285	-106,6	-561,4
0,2855	-122,9	-577,3
0,286	-133,5	-569,4
0,2865	-138,4	-542,5
0,287	-138,6	-499,8
0,2875	-134,7	-440,9
0,288	-126,3	-363,1
0,2885	-112,4	-267,6
0,289	-92,5	-160,7
0,2895	-67,4	-51,7
0,29	-38,8	51,9
0,2905	-9,1	146,3
0,291	20,1	232,3
0,2915	47,3	313,7
0,292	72,5	392,5
0,2925	96,2	466,0
0,293	118,3	525,8
0,2935	137,7	562,9
0,294	152,3	573,4
0,2945	160,3	560,2
0,295	161,3	528,2
0,2955	156,3	480,0
0,296	146,0	414,3
0,2965	129,8	329,4
0,297	106,5	228,6
0,2975	75,5	119,5
0,298	38,3	10,7
0,2985	-1,2	-92,5
0,299	-39,1	-189,0
0,2995	-73,0	-279,3
0,3	-102,4	-363,4
0,3005	-128,0	-440,2
0,301	-150,3	-506,0
0,3015	-169,0	-554,7
0,302	-182,9	-579,9
0,3025	-190,4	-579,5
0,303	-191,0	-557,3
0,3035	-185,5	-518,1
0,304	-175,1	-463,5
0,3045	-160,1	-391,7
0,305	-140,3	-302,0
0,3055	-115,6	-198,6
0,306	-86,1	-90,0
0,3065	-53,2	15,8
0,307	-19,5	113,9
0,3075	12,1	203,8
0,308	39,6	288,1
0,3085	63,4	369,7
0,309	85,2	447,3
0,3095	104,9	513,9
0,31	120,8	560,2
0,3105	131,3	580,2
0,311	136,6	574,7
0,3115	138,3	549,0
0,312	137,3	507,0
0,3125	133,3	448,3
0,313	125,7	370,5
0,3135	113,0	274,8
0,314	94,7	167,8
0,3145	71,6	58,6
0,315	45,1	-46,1
0,3155	17,6	-144,1
0,316	-9,2	-236,1
0,3165	-34,4	-322,6
0,317	-58,1	-403,2
0,3175	-80,8	-474,9
0,318	-102,5	-532,1
0,3185	-122,6	-567,7
0,319	-139,6	-577,8
0,3195	-151,7	-564,1
0,32	-158,3	-531,5
0,3205	-159,8	-483,3
0,321	-157,4	-418,8
0,3215	-151,0	-336,5
0,322	-139,8	-239,1
0,3225	-124,4	-133,5
0,323	-107,3	-27,8
0,3235	-90,9	72,1
0,324	-75,1	164,8
0,3245	-57,3	252,3
0,325	-34,3	337,6
0,3255	-4,8	420,6
0,326	29,8	495,6
0,3265	66,6	553,0
0,327	101,2	585,0
0,3275	130,4	590,1
0,328	152,8	572,2
0,3285	167,7	535,7
0,329	174,8	481,2
0,3295	173,6	406,8
0,33	163,7	313,1
0,3305	145,5	206,2
0,331	120,9	95,2
0,3315	92,2	-11,8
0,332	61,5	-111,5
0,3325	29,7	-204,6
0,333	-2,8	-292,8
0,3335	-35,3	-376,7
0,334	-66,3	-454,2
0,3345	-94,8	-519,7
0,335	-119,3	-565,2
0,3355	-138,6	-584,5
0,336	-151,4	-577,2
0,3365	-157,7	-548,2
0,337	-158,5	-502,5
0,3375	-154,5	-441,0
0,338	-145,6	-361,8
0,3385	-131,0	-265,6
0,339	-110,9	-158,5
0,3395	-86,5	-49,6
0,34	-59,6	53,5
0,3405	-31,8	147,5
0,341	-4,1	234,1
0,3415	23,1	317,2
0,342	49,6	398,2
0,3425	75,5	473,3
0,343	99,9	533,8
0,3435	121,1	571,5
0,344	137,3	583,0
0,3445	147,3	571,0
0,345	150,9	540,4
0,3455	148,0	493,6
0,346	137,7	429,2
0,3465	119,0	345,2
0,347	90,4	244,4
0,3475	47,4	135,1
0,348	-15,2	26,2
0,3485	-95,7	-77,0
0,349	-181,9	-174,0
0,3495	-256,8	-265,5
0,35	-308,6	-351,1
0,3505	-333,7	-429,0
0,351	-335,8	-495,3
0,3515	-324,6	-544,0
0,352	-308,9	-569,9
0,3525	-291,6	-571,7
0,353	-269,1	-552,8
0,3535	-237,2	-517,5
0,354	-195,8	-466,7
0,3545	-148,3	-397,7
0,355	-98,3	-309,5
0,3555	-48,1	-206,5
0,356	0,7	-97,7
0,3565	46,3	8,1
0,357	87,0	105,5
0,3575	121,8	194,4
0,358	150,5	277,8
0,3585	173,8	358,8
0,359	192,6	436,5
0,3595	207,8	504,6
0,36	219,0	554,1
0,3605	224,5	578,6
0,361	222,5	577,8
0,3615	213,1	555,6
0,362	199,0	515,7
0,3625	183,8	457,6
0,363	169,2	379,5
0,3635	153,3	282,6
0,364	133,1	174,1
0,3645	106,3	63,6
0,365	74,7	-41,8
0,3655	42,1	-139,9
0,366	11,5	-231,9
0,3665	-16,6	-318,7
0,367	-43,6	-399,7
0,3675	-70,1	-472,2
0,368	-95,2	-530,3
0,3685	-117,2	-567,0
0,369	-134,3	-578,0
0,3695	-145,3	-565,1
0,37	-150,4	-533,3
0,3705	-150,4	-486,2
0,371	-145,7	-423,1
0,3715	-136,0	-342,7
0,372	-120,3	-247,2
0,3725	-98,2	-142,9
0,373	-70,7	-37,5
0,3735	-40,0	63,1
0,374	-8,7	156,5
0,3745	21,0	244,2
0,375	48,6	328,5
0,3755	74,4	410,2
0,376	99,1	484,2
0,3765	121,8	541,8
0,377	139,5	575,2
0,3775	149,7	582,2
0,378	151,7	566,3
0,3785	147,2	532,3
0,379	138,3	481,5
0,3795	126,1	412,0
0,38	109,9	323,0
0,3805	89,1	218,8
0,381	64,1	107,6
0,3815	36,2	-2,2
0,382	7,6	-106,3
0,3825	-20,2	-204,0
0,383	-47,0	-295,7
0,3835	-73,1	-380,8
0,384	-98,9	-457,5
0,3845	-123,5	-521,2
0,385	-145,7	-565,1
0,3855	-163,6	-584,0
0,386	-175,6	-577,7
0,3865	-180,3	-550,7
0,387	-178,1	-507,4
0,3875	-169,9	-448,3
0,388	-156,9	-371,6
0,3885	-139,0	-277,8
0,389	-116,3	-172,4
0,3895	-89,1	-64,2
0,39	-58,9	39,4
0,3905	-28,0	134,6
0,391	2,3	222,2
0,3915	31,2	305,8
0,392	59,2	387,3
0,3925	86,8	464,2
0,393	113,0	528,2
0,3935	135,8	569,9
0,394	152,9	584,8
0,3945	162,3	575,0
0,395	162,7	545,5
0,3955	154,2	499,3
0,396	137,7	435,6
0,3965	115,3	352,8
0,397	89,2	253,3
0,3975	60,5	144,6
0,398	30,1	35,4
0,3985	-0,9	-68,1
0,399	-31,0	-164,4
0,3995	-59,2	-254,1
0,4	-84,8	-337,7
0,4005	-107,1	-414,7
0,401	-125,9	-482,0
0,4015	-141,1	-534,0
0,402	-152,3	-564,5
0,4025	-158,8	-570,2
0,403	-159,9	-553,3
0,4035	-156,0	-518,0
0,404	-147,9	-466,3
0,4045	-136,3	-397,2
0,405	-120,8	-310,2
0,4055	-101,0	-209,5
0,406	-77,0	-103,1
0,4065	-49,6	1,3
0,407	-20,0	99,0
0,4075	11,0	189,9
0,408	42,1	276,5
0,4085	72,2	361,1
0,409	100,2	442,0
0,4095	124,8	512,1
0,41	145,6	562,2
0,4105	161,8	586,0
0,411	172,5	583,5
0,4115	177,2	559,0
0,412	175,6	516,3
0,4125	167,7	456,0
0,413	153,6	376,5
0,4135	133,5	279,3
0,414	107,5	170,6
0,4145	76,5	59,1
0,415	41,6	-48,1
0,4155	3,8	-148,2
0,416	-36,3	-241,2
0,4165	-77,8	-327,7
0,417	-118,9	-407,6
0,4175	-157,5	-478,4
0,418	-191,3	-535,0
0,4185	-218,4	-570,7
0,419	-236,8	-581,6
0,4195	-244,4	-569,1
0,42	-241,7	-537,4
0,4205	-231,8	-489,7
0,421	-218,3	-425,5
0,4215	-203,3	-343,4
0,422	-186,3	-245,4
0,4225	-166,1	-138,5
0,423	-141,9	-31,3
0,4235	-113,5	69,3
0,424	-81,3	161,1
0,4245	-46,8	245,9
0,425	-10,4	327,8
0,4255	27,4	407,9
0,426	66,3	482,2
0,4265	104,6	541,1
0,427	139,2	576,0
0,4275	166,5	583,9
0,428	184,8	567,9
0,4285	193,7	532,8
0,429	194,7	480,8
0,4295	189,1	410,7
0,43	177,1	322,0
0,4305	158,9	219,3
0,431	135,0	110,7
0,4315	107,5	4,4
0,432	78,9	-95,9
0,4325	50,6	-190,2
0,433	22,7	-279,2
0,4335	-5,6	-362,6
0,434	-34,0	-438,5
0,4345	-61,3	-502,3
0,435	-86,3	-547,4
0,4355	-107,1	-568,4
0,436	-122,3	-565,0
0,4365	-131,2	-541,6
0,437	-133,7	-502,1
0,4375	-130,6	-447,0
0,438	-122,2	-374,0
0,4385	-108,5	-283,3
0,439	-89,3	-180,3
0,4395	-65,3	-74,2
0,44	-38,5	26,9
0,4405	-10,8	119,6
0,441	16,3	205,2
0,4415	42,1	287,8
0,442	66,9	370,0
0,4425	91,1	448,3
0,443	113,2	513,9
0,4435	129,3	557,1
0,444	136,4	573,0
0,4445	134,4	563,9
0,445	126,7	535,3
0,4455	117,4	490,4
0,446	108,6	428,8
0,4465	99,6	348,5
0,447	88,5	251,4
0,4475	73,3	144,5
0,448	54,1	36,5
0,4485	31,2	-66,5
0,449	2,3	-163,0
0,4495	-35,7	-254,0
0,45	-82,7	-339,9
0,4505	-133,7	-419,8
0,451	-181,0	-489,9
0,4515	-218,0	-543,9
0,452	-240,9	-575,1
0,4525	-248,3	-580,8
0,453	-241,3	-563,7
0,4535	-222,2	-528,4
0,454	-194,3	-476,9
0,4545	-161,5	-407,8
0,455	-126,5	-320,1
0,4555	-91,3	-217,5
0,456	-57,3	-108,2
0,4565	-25,8	-0,6
0,457	1,8	99,9
0,4575	25,0	192,6
0,458	41,8	279,9
0,4585	47,1	364,8
0,459	37,2	446,6
0,4595	15,6	519,1
0,46	-7,3	572,6
0,4605	-21,2	600,3
0,461	-22,4	601,4
0,4615	-11,6	580,6
0,462	8,6	542,3
0,4625	35,3	487,3
0,463	65,7	413,1
0,4635	96,7	319,3
0,464	123,8	211,3
0,4645	142,5	97,8
0,465	150,0	-13,3
0,4655	145,5	-118,6
0,466	130,0	-218,1
0,4665	104,5	-311,8
0,467	70,9	-398,8
0,4675	31,5	-476,5
0,468	-10,3	-539,3
0,4685	-50,4	-580,2
0,469	-85,2	-594,3
0,4695	-112,0	-582,7
0,47	-130,0	-550,9
0,4705	-139,6	-502,9
0,471	-141,3	-438,6
0,4715	-136,1	-356,2
0,472	-124,0	-257,3
0,4725	-105,3	-149,3
0,473	-80,1	-41,5
0,4735	-49,5	59,2
0,474	-16,3	150,8
0,4745	16,7	235,6
0,475	47,6	317,4
0,4755	76,3	397,6
0,476	103,0	471,4
0,4765	127,3	529,9
0,477	147,3	565,0
0,4775	160,8	574,0
0,478	166,6	560,1
0,4785	165,4	528,1
0,479	158,5	479,8
0,4795	147,1	413,4
0,48	131,3	327,8
0,4805	110,3	226,8
0,481	84,4	118,3
0,4815	54,8	10,5
0,482	23,9	-92,0
0,4825	-6,3	-188,6
0,483	-34,7	-279,6
0,4835	-60,8	-364,7
0,484	-84,7	-442,3
0,4845	-106,7	-508,6
0,485	-127,1	-557,3
0,4855	-145,5	-582,5
0,486	-160,5	-582,3
0,4865	-170,5	-559,8
0,487	-174,4	-519,3
0,4875	-172,1	-461,7
0,488	-163,6	-385,7
0,4885	-148,3	-291,9
0,489	-125,6	-185,6
0,4895	-96,2	-75,6
0,49	-62,9	29,7
0,4905	-29,7	125,9
0,491	0,8	213,3
0,4915	27,8	295,5
0,492	52,4	375,5
0,4925	76,3	451,5
0,493	100,0	516,3
0,4935	122,0	560,6
0,494	138,9	578,7
0,4945	147,6	571,4
0,495	146,9	543,6
0,4955	138,4	498,7
0,496	124,6	436,2
0,4965	107,0	354,0
0,497	85,6	254,1
0,4975	60,3	143,9
0,498	32,2	32,9
0,4985	3,1	-72,1
0,499	-25,1	-169,5
0,4995	-51,3	-260,2
0,5	-75,1	-344,7
0,5005	-96,7	-422,4
0,501	-115,7	-490,4
0,5015	-131,9	-542,8
0,502	-145,2	-573,7
0,5025	-155,0	-579,8
0,503	-160,6	-563,7
0,5035	-161,6	-529,6
0,504	-157,9	-479,7
0,5045	-149,9	-412,5
0,505	-137,7	-326,8
0,5055	-121,9	-225,8
0,506	-102,9	-117,7
0,5065	-81,0	-11,1
0,507	-56,6	88,0
0,5075	-30,5	178,9
0,508	-3,8	264,3
0,5085	22,8	347,7
0,509	49,6	428,6
0,5095	76,7	500,8
0,51	103,5	554,6
0,5105	128,1	582,5
0,511	148,0	583,6
0,5115	161,3	562,0
0,512	167,2	522,4
0,5125	166,0	466,1
0,513	157,8	391,3
0,5135	143,1	298,3
0,514	122,9	192,4
0,5145	98,7	82,7
0,515	71,8	-23,2
0,5155	43,3	-122,0
0,516	13,8	-214,2
0,5165	-17,8	-300,6
0,517	-52,1	-380,9
0,5175	-88,6	-453,1
0,518	-124,7	-512,2
0,5185	-157,0	-551,7
0,519	-182,0	-566,9
0,5195	-197,4	-558,3
0,52	-202,4	-530,4
0,5205	-198,1	-486,8
0,521	-185,8	-426,8
0,5215	-166,4	-348,3
0,522	-140,6	-252,7
0,5225	-109,3	-146,8
0,523	-74,6	-39,8
0,5235	-39,0	61,3
0,524	-4,7	154,0
0,5245	27,2	239,8
0,525	56,2	321,7
0,5255	82,2	401,0
0,526	104,5	473,5
0,5265	122,7	530,9
0,527	136,7	565,5
0,5275	146,5	574,6
0,528	151,9	560,7
0,5285	152,8	528,5
0,529	149,7	479,9
0,5295	142,3	413,4
0,53	130,3	327,8
0,5305	113,2	226,5
0,531	91,3	117,3
0,5315	66,2	8,6
0,532	39,6	-94,6
0,5325	13,0	-191,2
0,533	-13,4	-281,7
0,5335	-39,4	-365,9
0,534	-64,8	-442,6
0,5345	-89,4	-507,9
0,535	-112,5	-555,4
0,5355	-132,5	-579,3
0,536	-147,3	-577,9
0,5365	-155,9	-555,0
0,537	-158,2	-515,3
0,5375	-155,2	-459,8
0,538	-147,8	-386,3
0,5385	-136,5	-294,8
0,539	-121,2	-190,0
0,5395	-101,3	-80,4
0,54	-76,8	25,8
0,5405	-48,5	124,2
0,541	-17,7	214,7
0,5415	13,6	300,3
0,542	43,9	383,4
0,5425	72,4	462,0
0,543	98,6	528,7
0,5435	122,0	574,2
0,544	141,2	593,1
0,5445	154,9	586,3
0,545	162,3	558,9
0,5455	163,9	514,8
0,546	159,8	454,2
0,5465	150,3	375,1
0,547	134,5	278,8
0,5475	112,8	171,3
0,548	85,8	61,4
0,5485	55,1	-44,7
0,549	22,7	-144,5
0,5495	-10,3	-238,2
0,55	-42,7	-325,5
0,5505	-73,6	-405,6
0,551	-102,2	-475,8
0,5515	-127,5	-531,1
0,552	-147,7	-565,4
0,5525	-161,2	-575,2
0,553	-166,9	-561,8
0,5535	-165,1	-529,4
0,554	-157,1	-480,2
0,5545	-144,3	-413,3
0,555	-127,6	-327,6
0,5555	-107,2	-227,0
0,556	-83,7	-119,8
0,5565	-57,7	-15,2
0,557	-30,5	81,2
0,5575	-3,4	168,8
0,558	22,7	251,1
0,5585	47,6	331,8
0,559	71,8	411,1
0,5595	95,4	483,1
0,56	118,1	538,4
0,5605	138,2	569,3
0,561	153,7	574,0
0,5615	162,9	555,9
0,562	165,3	519,5
0,5625	161,0	465,6
0,563	150,5	392,5
0,5635	133,9	299,9
0,564	111,2	192,8
0,5645	83,5	80,0
0,565	52,7	-29,6
0,5655	20,0	-131,8
0,566	-16,5	-226,0
0,5665	-60,4	-313,5
0,567	-111,8	-394,4
0,5675	-164,7	-467,2
0,568	-210,4	-527,1
0,5685	-243,5	-567,4
0,569	-264,0	-583,1
0,5695	-274,0	-574,4
0,57	-274,6	-545,8
0,5705	-264,3	-501,3
0,571	-242,2	-440,9
0,5715	-209,4	-362,6
0,572	-168,7	-267,4
0,5725	-123,1	-161,4
0,573	-75,7	-53,3
0,5735	-29,7	49,5
0,574	11,3	144,2
0,5745	45,1	231,9
0,575	71,0	316,2
0,5755	90,0	398,6
0,576	103,9	475,4
0,5765	114,6	537,4
0,577	122,9	575,4
0,5775	129,0	586,1
0,578	132,2	573,0
0,5785	131,5	541,7
0,579	126,3	494,7
0,5795	116,8	430,4
0,58	103,8	347,3
0,5805	88,3	248,0
0,581	70,9	139,7
0,5815	51,3	31,0
0,582	29,0	-72,4
0,5825	4,4	-169,5
0,583	-21,4	-260,9
0,5835	-47,3	-347,0
0,584	-72,3	-426,8
0,5845	-95,5	-496,8
0,585	-115,8	-550,7
0,5855	-131,6	-581,2
0,586	-141,6	-585,0
0,5865	-144,9	-565,0
0,587	-142,3	-525,9
0,5875	-135,3	-470,4
0,588	-125,0	-397,7
0,5885	-111,4	-307,5
0,589	-94,3	-203,7
0,5895	-74,5	-94,3
0,59	-54,2	12,7
0,5905	-35,3	111,8
0,591	-18,3	202,3
0,5915	-1,8	287,2
0,592	16,6	369,3
0,5925	38,4	447,4
0,593	63,3	514,7
0,5935	88,8	561,6
0,594	111,1	582,3
0,5945	123,7	577,6
0,595	116,3	552,2
0,5955	80,7	509,9
0,596	19,3	450,5
0,5965	-53,0	372,3
0,597	-117,6	276,6
0,5975	-163,3	170,0
0,598	-186,9	61,6
0,5985	-190,2	-42,2
0,599	-177,2	-139,6
0,5995	-153,1	-231,7
0,6	-123,2	-318,6
0,6005	-92,2	-399,2
0,601	-64,3	-470,1
0,6015	-42,3	-525,8
0,602	-27,4	-559,8
0,6025	-20,0	-568,8
0,603	-18,9	-554,6
0,6035	-22,5	-522,3
0,604	-28,4	-474,8
0,6045	-34,5	-411,9
0,605	-37,6	-332,4
0,6055	-35,0	-238,5
0,606	-25,3	-136,2
0,6065	-9,1	-32,8
0,607	11,1	66,7
0,6075	32,6	160,4
0,608	53,4	249,9
0,6085	72,8	337,3
0,609	91,8	422,2
0,6095	112,3	498,5
0,61	135,3	556,6
0,6105	158,6	588,2
0,611	177,8	591,2
0,6115	189,3	570,1
0,612	192,1	530,7
0,6125	187,1	475,1
0,613	175,5	401,8
0,6135	157,9	310,1
0,614	134,6	203,9
0,6145	105,9	90,9
0,615	72,8	-20,6
0,6155	37,0	-125,5
0,616	0,5	-222,1
0,6165	-35,3	-310,6
0,617	-69,2	-391,3
0,6175	-100,8	-463,4
0,618	-129,1	-523,3
0,6185	-153,4	-564,5
0,619	-172,7	-581,9
0,6195	-186,3	-575,2
0,62	-194,2	-548,4
0,6205	-196,2	-505,4
0,621	-192,0	-446,1
0,6215	-181,3	-368,7
0,622	-163,6	-273,8
0,6225	-139,1	-167,7
0,623	-108,7	-58,9
0,6235	-74,6	44,9
0,624	-39,4	140,3
0,6245	-5,5	228,5
0,625	25,9	312,9
0,6255	55,0	395,4
0,626	82,6	472,9
0,6265	108,7	536,7
0,627	131,7	578,1
0,6275	149,5	592,7
0,628	161,4	582,7
0,6285	167,9	552,8
0,629	169,7	506,0
0,6295	166,0	441,5
0,63	155,0	357,9
0,6305	136,0	257,9
0,631	110,5	149,3
0,6315	81,8	40,8
0,632	52,8	-62,1
0,6325	24,5	-158,4
0,633	-3,2	-248,9
0,6335	-31,5	-334,0
0,634	-60,4	-412,8
0,6345	-89,4	-481,9
0,635	-116,9	-535,6
0,6355	-140,5	-567,4
0,636	-158,1	-575,2
0,6365	-168,3	-561,8
0,637	-171,7	-530,7
0,6375	-169,3	-482,3
0,638	-161,6	-413,8
0,6385	-147,5	-324,5
0,639	-126,5	-219,3
0,6395	-99,0	-107,7
0,64	-67,3	1,1
0,6405	-34,3	101,7
0,641	-2,2	193,7
0,6415	27,6	280,2
0,642	55,0	364,1
0,6425	80,8	444,3
0,643	105,1	514,1
0,6435	127,0	563,7
0,644	144,5	586,7
0,6445	155,9	583,1
0,645	160,7	557,6
0,6455	159,5	514,9
0,646	153,3	455,6
0,6465	141,3	377,8
0,647	118,9	281,9
0,6475	81,8	173,4
0,648	30,5	61,4
0,6485	-27,3	-46,6
0,649	-81,5	-147,1
0,6495	-125,2	-240,2
0,65	-156,3	-326,9
0,6505	-175,9	-407,0
0,651	-186,1	-478,2
0,6515	-188,7	-534,9
0,652	-184,8	-570,3
0,6525	-175,4	-580,2
0,653	-161,5	-566,4
0,6535	-145,0	-534,0
0,654	-127,9	-486,4
0,6545	-111,6	-422,8
0,655	-96,1	-341,2
0,6555	-80,8	-243,9
0,656	-65,3	-138,6
0,6565	-48,8	-33,9
0,657	-31,1	64,4
0,6575	-11,8	155,3
0,658	9,1	240,9
0,6585	31,8	324,3
0,659	56,1	405,7
0,6595	80,4	480,4
0,66	101,7	538,9
0,6605	115,9	572,9
0,661	120,4	579,8
0,6615	115,4	563,0
0,662	104,3	527,6
0,6625	91,2	475,5
0,663	78,5	405,0
0,6635	66,1	315,7
0,664	52,7	211,9
0,6645	37,9	102,3
0,665	22,0	-4,9
0,6655	6,1	-105,8
0,666	-9,4	-200,1
0,6665	-24,4	-289,0
0,667	-39,2	-372,2
0,6675	-54,4	-447,8
0,668	-70,7	-511,4
0,6685	-87,7	-556,6
0,669	-103,6	-577,9
0,6695	-116,3	-574,8
0,67	-124,0	-551,0
0,6705	-126,7	-510,2
0,671	-124,5	-452,6
0,6715	-117,4	-376,6
0,672	-105,3	-283,3
0,6725	-88,3	-178,5
0,673	-67,1	-70,9
0,6735	-43,0	32,3
0,674	-17,5	127,7
0,6745	8,1	216,2
0,675	33,0	300,9
0,6755	57,6	383,9
0,676	82,7	462,1
0,6765	108,0	527,4
0,677	130,8	570,6
0,6775	146,8	586,8
0,678	152,9	577,6
0,6785	149,1	548,2
0,679	137,8	502,0
0,6795	121,5	438,8
0,68	101,5	357,0
0,6805	77,8	258,6
0,681	50,8	150,5
0,6815	22,1	41,2
0,682	-6,2	-63,3
0,6825	-32,6	-161,0
0,683	-57,1	-252,4
0,6835	-81,4	-337,7
0,684	-106,8	-416,5
0,6845	-132,5	-486,0
0,685	-156,3	-540,3
0,6855	-175,2	-572,1
0,686	-187,2	-577,4
0,6865	-191,5	-558,5
0,687	-188,8	-520,3
0,6875	-180,4	-465,8
0,688	-167,8	-394,5
0,6885	-151,0	-306,2
0,689	-129,7	-204,7
0,6895	-104,1	-97,8
0,69	-75,4	6,5
0,6905	-45,0	103,5
0,691	-14,8	192,8
0,6915	12,7	277,2
0,692	36,1	360,0
0,6925	56,3	440,4
0,693	75,8	511,5
0,6935	95,6	563,3
0,694	114,7	588,8
0,6945	131,1	587,6
0,695	142,8	564,1
0,6955	149,6	522,6
0,696	151,2	464,2
0,6965	147,3	387,2
0,697	137,0	292,2
0,6975	119,6	184,6
0,698	95,7	72,9
0,6985	67,0	-35,5
0,699	36,0	-137,6
0,6995	2,0	-233,6
0,7	-41,6	-323,5
0,7005	-100,9	-405,9
0,701	-173,5	-477,3
0,7015	-246,9	-532,6
0,702	-305,4	-566,1
0,7025	-339,0	-574,7
0,703	-344,6	-560,3
0,7035	-325,0	-528,1
0,704	-286,3	-481,0
0,7045	-235,4	-418,4
0,705	-177,1	-338,1
0,7055	-115,2	-241,6
0,706	-52,8	-135,6
0,7065	6,4	-28,8
0,707	58,6	72,0
0,7075	101,3	164,1
0,708	134,0	249,2
0,7085	158,0	330,3
0,709	175,9	408,6
0,7095	189,8	479,3
0,71	200,8	533,9
0,7105	208,6	564,5
0,711	212,8	568,8
0,7115	212,7	550,1
0,712	207,7	513,3
0,7125	196,8	461,0
0,713	179,6	391,9
0,7135	156,4	305,4
0,714	128,8	204,9
0,7145	98,9	98,0
0,715	68,8	-8,0
0,7155	39,5	-108,8
0,716	11,1	-203,8
0,7165	-16,7	-293,3
0,717	-44,1	-377,0
0,7175	-71,0	-453,3
0,718	-97,3	-517,8
0,7185	-121,9	-564,0
0,719	-143,3	-585,8
0,7195	-159,5	-582,0
0,72	-168,9	-556,8
0,7205	-171,3	-514,8
0,721	-166,9	-456,9
0,7215	-156,1	-381,3
0,722	-139,3	-288,0
0,7225	-117,1	-182,7
0,723	-90,6	-74,0
0,7235	-61,5	30,2
0,724	-31,8	126,0
0,7245	-2,5	214,3
0,725	25,8	298,5
0,7255	53,0	380,6
0,726	79,1	458,0
0,7265	103,4	522,8
0,727	124,3	565,6
0,7275	139,3	581,0
0,728	147,3	570,6
0,7285	148,7	540,1
0,729	145,8	493,6
0,7295	139,6	430,9
0,73	129,5	350,3
0,7305	113,8	253,1
0,731	92,1	146,1
0,7315	65,9	37,9
0,732	37,8	-65,8
0,7325	9,8	-163,3
0,733	-17,5	-254,9
0,7335	-43,9	-340,3
0,734	-70,5	-418,6
0,7345	-98,8	-486,9
0,735	-128,7	-539,6
0,7355	-157,1	-570,1
0,736	-179,8	-575,2
0,7365	-193,4	-557,6
0,737	-197,4	-522,1
0,7375	-192,5	-471,1
0,738	-180,1	-402,9
0,7385	-161,3	-316,3
0,739	-136,8	-214,8
0,7395	-107,2	-106,1
0,74	-74,3	0,7
0,7405	-40,3	99,2
0,741	-7,6	188,4
0,7415	22,7	271,5
0,742	50,3	352,4
0,7425	74,0	431,3
0,743	90,1	502,1
0,7435	95,4	555,0
0,744	91,1	582,7
0,7445	82,3	584,2
0,745	74,7	563,1
0,7455	70,8	523,0
0,746	70,5	464,0
0,7465	71,7	385,0
0,747	71,1	288,3
0,7475	66,7	180,5
0,748	58,3	70,4
0,7485	46,9	-35,5
0,749	33,7	-134,9
0,7495	18,2	-228,4
0,75	-0,6	-316,7
0,7505	-23,7	-399,7
0,751	-50,9	-474,7
0,7515	-80,5	-535,9
0,752	-109,6	-575,8
0,7525	-134,9	-589,6
0,753	-153,6	-578,5
0,7535	-164,1	-548,0
0,754	-166,8	-501,9
0,7545	-163,6	-439,8
0,755	-156,8	-359,5
0,7555	-146,9	-262,1
0,756	-133,3	-154,1
0,7565	-114,9	-44,6
0,757	-91,2	58,7
0,7575	-62,9	152,7
0,758	-31,8	239,0
0,7585	0,0	321,3
0,759	30,6	401,6
0,7595	58,3	476,3
0,76	80,5	536,3
0,7605	95,0	573,3
0,761	101,9	583,6
0,7615	104,0	569,8
0,762	104,4	537,1
0,7625	104,4	487,5
0,763	103,7	420,2
0,7635	100,6	334,3
0,764	93,3	233,2
0,7645	80,9	124,7
0,765	64,6	16,9
0,7655	46,3	-85,5
0,766	27,8	-181,8
0,7665	10,1	-272,4
0,767	-8,0	-356,9
0,7675	-27,9	-434,0
0,768	-50,1	-499,7
0,7685	-73,5	-547,5
0,769	-95,1	-571,3
0,7695	-112,0	-570,0
0,77	-122,0	-547,5
0,7705	-125,3	-508,4
0,771	-122,8	-453,7
0,7715	-115,5	-381,3
0,772	-103,4	-291,0
0,7725	-85,9	-187,6
0,773	-62,9	-79,7
0,7735	-35,9	24,7
0,774	-6,5	121,3
0,7745	23,8	210,6
0,775	53,4	295,4
0,7755	81,6	378,1
0,776	107,6	456,3
0,7765	130,8	522,1
0,777	150,6	566,6
0,7775	165,8	584,4
0,778	175,2	576,7
0,7785	178,5	548,2
0,779	176,2	502,7
0,7795	168,8	439,9
0,78	156,2	358,5
0,7805	137,9	260,1
0,781	113,8	151,5
0,7815	85,1	41,7
0,782	54,2	-62,8
0,7825	22,9	-160,0
0,783	-8,3	-250,6
0,7835	-40,3	-335,3
0,784	-73,8	-413,6
0,7845	-108,0	-482,5
0,785	-140,3	-536,1
0,7855	-168,1	-567,3
0,786	-189,6	-572,6
0,7865	-204,4	-554,4
0,787	-212,8	-518,2
0,7875	-214,8	-466,9
0,788	-209,7	-399,2
0,7885	-196,3	-313,6
0,789	-174,4	-213,3
0,7895	-145,0	-106,3
0,79	-110,3	-1,5
0,7905	-73,0	95,6
0,791	-35,2	184,4
0,7915	1,5	267,8
0,792	36,3	349,3
0,7925	69,0	428,8
0,793	99,8	500,1
0,7935	127,7	553,6
0,794	151,2	581,8
0,7945	168,5	583,3
0,795	178,6	561,6
0,7955	181,6	521,0
0,796	177,9	463,0
0,7965	167,5	386,7
0,797	148,9	293,0
0,7975	116,2	187,1
0,798	63,8	77,4
0,7985	-6,6	-29,0
0,799	-82,8	-128,8
0,7995	-149,2	-222,1
0,8	-196,2	-309,4
0,8005	-221,6	-390,6
0,801	-227,7	-464,2
0,8015	-218,7	-525,1
0,802	-198,5	-566,8
0,8025	-170,2	-584,0
0,803	-136,9	-577,2
0,8035	-102,5	-551,3
0,804	-70,7	-510,0
0,8045	-43,9	-452,8
0,805	-22,7	-376,8
0,8055	-5,9	-282,2
0,806	8,1	-175,3
0,8065	20,6	-65,5
0,807	32,8	39,3
0,8075	45,4	135,4
0,808	59,3	224,2
0,8085	74,3	308,8
0,809	90,3	390,9
0,8095	106,5	467,1
0,81	121,0	529,0
0,8105	130,9	567,9
0,811	134,4	580,0
0,8115	132,7	567,5
0,812	128,9	535,1
0,8125	125,8	485,5
0,813	123,0	417,6
0,8135	117,8	330,8
0,814	107,4	228,7
0,8145	90,7	119,4
0,815	68,8	11,6
0,8155	43,7	-90,2
0,816	16,8	-185,3
0,8165	-11,6	-274,9
0,817	-41,1	-359,3
0,8175	-71,0	-437,3
0,818	-99,6	-504,9
0,8185	-125,0	-555,3
0,819	-145,4	-581,6
0,8195	-159,0	-581,7
0,82	-165,2	-559,2
0,8205	-164,6	-519,0
0,821	-158,4	-462,5
0,8215	-147,6	-387,9
0,822	-133,2	-294,9
0,8225	-116,3	-188,6
0,823	-97,9	-77,5
0,8235	-78,0	30,0
0,824	-56,8	129,1
0,8245	-34,9	219,6
0,825	-12,9	304,2
0,8255	10,0	385,6
0,826	35,1	462,6
0,8265	62,5	528,3
0,827	90,5	573,4
0,8275	115,6	592,0
0,828	135,0	584,0
0,8285	147,3	554,3
0,829	153,2	507,4
0,8295	153,2	444,4
0,83	147,4	363,8
0,8305	135,0	266,9
0,831	115,9	159,5
0,8315	91,2	50,0
0,832	63,0	-55,2
0,8325	33,8	-153,9
0,833	5,4	-246,5
0,8335	-22,0	-333,3
0,834	-48,7	-413,2
0,8345	-75,0	-483,4
0,835	-100,8	-537,8
0,8355	-124,3	-569,8
0,836	-142,8	-575,8
0,8365	-154,1	-558,5
0,837	-157,9	-523,6
0,8375	-155,7	-474,8
0,838	-148,9	-411,3
0,8385	-138,0	-331,5
0,839	-121,7	-236,7
0,8395	-99,2	-132,8
0,84	-71,2	-28,0
0,8405	-39,9	71,6
0,841	-7,6	163,8
0,8415	24,1	250,4
0,842	53,9	334,4
0,8425	80,8	415,7
0,843	103,2	488,7
0,8435	120,1	544,0
0,844	131,3	574,1
0,8445	137,3	577,7
0,845	139,2	558,8
0,8455	137,8	522,0
0,846	133,1	468,5
0,8465	123,3	396,7
0,847	105,9	306,3
0,8475	80,5	202,5
0,848	49,4	93,9
0,8485	14,7	-11,3
0,849	-24,8	-110,0
0,8495	-70,7	-202,4
0,85	-121,1	-289,6
0,8505	-169,4	-371,4
0,851	-208,6	-445,9
0,8515	-234,3	-508,2
0,852	-245,5	-551,2
0,8525	-243,3	-569,5
0,853	-229,3	-563,0
0,8535	-206,4	-536,3
0,854	-177,5	-493,3
0,8545	-145,4	-434,1
0,855	-111,9	-356,6
0,8555	-78,0	-261,7
0,856	-44,4	-155,4
0,8565	-12,5	-47,4
0,857	16,2	54,5
0,8575	40,6	147,0
0,858	60,8	232,0
0,8585	78,3	313,5
0,859	95,1	393,5
0,8595	112,8	468,7
0,86	130,9	530,3
0,8605	147,8	569,2
0,861	160,8	581,0
0,8615	167,4	568,3
0,862	167,1	536,3
0,8625	161,5	488,2
0,863	153,2	422,8
0,8635	142,8	338,5
0,864	129,1	238,4
0,8645	110,5	130,1
0,865	86,6	22,1
0,8655	58,9	-80,4
0,866	29,4	-176,3
0,8665	-0,1	-266,0
0,867	-28,5	-349,9
0,8675	-55,3	-426,7
0,868	-80,4	-493,1
0,8685	-103,3	-542,9
0,869	-123,1	-569,8
0,8695	-138,1	-571,5
0,87	-146,9	-551,2
0,8705	-149,0	-513,5
0,871	-145,0	-460,1
0,8715	-135,2	-389,3
0,872	-119,9	-300,4
0,8725	-99,4	-197,7
0,873	-74,9	-89,1
0,8735	-48,2	17,0
0,874	-20,9	115,2
0,8745	5,9	205,2
0,875	31,8	289,9
0,8755	56,7	371,9
0,876	80,6	449,7
0,8765	103,8	516,4
0,877	125,2	563,2
0,8775	143,1	584,3
0,878	155,5	580,1
0,8785	161,3	554,6
0,879	160,4	511,5
0,8795	153,8	451,1
0,88	142,1	372,1
0,8805	125,5	275,6
0,881	103,2	167,6
0,8815	73,6	56,5
0,882	35,8	-51,5
0,8825	-8,5	-153,7
0,883	-54,4	-249,4
0,8835	-96,4	-337,9
0,884	-131,4	-418,3
0,8845	-159,0	-488,8
0,885	-179,7	-544,8
0,8855	-194,2	-580,0
0,886	-203,3	-590,0
0,8865	-207,1	-576,0
0,887	-205,5	-542,8
0,8875	-198,1	-493,6
0,888	-184,7	-427,9
0,8885	-165,6	-344,1
0,889	-141,1	-244,4
0,8895	-111,7	-136,3
0,89	-78,4	-28,3
0,8905	-43,3	73,2
0,891	-9,8	166,6
0,8915	19,3	254,1
0,892	43,3	338,8
0,8925	64,0	420,3
0,893	84,1	493,3
0,8935	104,8	548,5
0,894	124,7	578,7
0,8945	141,4	582,2
0,895	152,7	562,7
0,8955	157,7	524,7
0,896	157,0	470,2
0,8965	151,0	398,0
0,897	139,5	308,0
0,8975	121,6	204,7
0,898	97,3	96,3
0,8985	68,0	-9,7
0,899	36,1	-109,5
0,8995	3,3	-203,3
0,9	-29,1	-291,6
0,9005	-60,6	-374,1
0,901	-90,1	-449,0
0,9015	-116,7	-512,0
0,902	-139,3	-556,4
0,9025	-156,5	-576,5
0,903	-167,2	-571,7
0,9035	-171,0	-545,9
0,904	-168,5	-503,4
0,9045	-160,6	-445,0
0,905	-147,6	-368,8
0,9055	-129,3	-275,5
0,906	-105,6	-170,8
0,9065	-77,3	-63,3
0,907	-46,2	39,1
0,9075	-14,7	132,8
0,908	14,9	218,9
0,9085	41,4	301,4
0,909	64,8	382,8
0,9095	86,1	460,2
0,91	105,5	525,1
0,9105	122,3	568,0
0,911	134,7	584,0
0,9115	141,3	574,3
0,912	142,8	543,8
0,9125	141,0	495,6
0,913	137,0	429,4
0,9135	129,9	344,3
0,914	117,1	243,2
0,9145	96,7	133,1
0,915	69,3	22,5
0,9155	37,7	-82,8
0,916	5,0	-181,5
0,9165	-27,1	-274,0
0,917	-57,3	-360,0
0,9175	-84,6	-438,3
0,918	-108,3	-505,3
0,9185	-128,5	-555,2
0,919	-145,2	-582,0
0,9195	-158,0	-583,7
0,92	-166,7	-563,1
0,9205	-170,8	-525,0
0,921	-170,8	-471,1
0,9215	-167,3	-400,2
0,922	-159,8	-311,7
0,9225	-147,3	-209,4
0,923	-128,2	-101,4
0,9235	-102,4	4,0
0,924	-74,3	101,8
0,9245	-54,0	191,5
0,925	-51,5	276,1
0,9255	-66,9	358,7
0,926	-88,8	438,4
0,9265	-101,7	508,7
0,927	-96,5	559,9
0,9275	-72,9	585,3
0,928	-35,4	584,4
0,9285	10,3	561,7
0,929	59,4	521,6
0,9295	107,8	464,6
0,93	150,8	388,8
0,9305	183,0	294,5
0,931	199,9	187,0
0,9315	199,7	74,8
0,932	184,2	-34,6
0,9325	157,2	-137,2
0,933	122,6	-232,4
0,9335	83,5	-320,1
0,934	42,6	-400,0
0,9345	1,5	-469,9
0,935	-38,4	-525,4
0,9355	-75,4	-560,5
0,936	-106,8	-571,8
0,9365	-130,3	-560,2
0,937	-145,3	-529,9
0,9375	-152,6	-483,1
0,938	-153,0	-418,8
0,9385	-146,0	-335,8
0,939	-130,1	-236,8
0,9395	-105,0	-129,6
0,94	-72,2	-22,7
0,9405	-35,3	77,7
0,941	2,0	170,0
0,9415	36,7	256,4
0,942	67,8	339,8
0,9425	95,9	420,8
0,943	121,8	493,9
0,9435	145,3	549,7
0,944	165,2	579,9
0,9445	179,6	583,0
0,945	187,7	563,9
0,9455	189,8	527,9
0,946	185,5	476,0
0,9465	171,8	405,5
0,947	143,8	315,1
0,9475	99,5	208,7
0,948	44,1	95,1
0,9485	-12,6	-17,1
0,949	-61,6	-122,7
0,9495	-98,3	-220,7
0,95	-122,3	-311,3
0,9505	-135,3	-394,2
0,951	-140,0	-468,5
0,9515	-139,2	-530,6
0,952	-135,5	-574,6
0,9525	-130,4	-595,0
0,953	-124,2	-590,6
0,9535	-117,2	-565,0
0,954	-110,0	-522,3
0,9545	-103,0	-463,1
0,955	-95,5	-385,5
0,9555	-85,8	-290,4
0,956	-72,6	-183,9
0,9565	-55,7	-74,9
0,957	-35,6	28,8
0,9575	-13,3	124,3
0,958	9,8	212,6
0,9585	32,9	297,0
0,959	55,5	379,8
0,9595	77,2	458,3
0,96	97,9	524,9
0,9605	117,4	570,1
0,961	135,6	588,7
0,9615	151,0	581,8
0,962	161,5	554,0
0,9625	164,9	508,2
0,963	159,9	443,7
0,9635	145,3	358,8
0,964	121,2	256,1
0,9645	89,7	143,7
0,965	54,8	31,5
0,9655	20,5	-73,9
0,966	-10,9	-171,1
0,9665	-38,2	-261,2
0,967	-61,6	-345,0
0,9675	-82,3	-422,1
0,968	-101,8	-489,8
0,9685	-121,0	-542,2
0,969	-138,8	-573,1
0,9695	-153,0	-579,5
0,97	-161,3	-563,8
0,9705	-162,8	-530,3
0,971	-158,0	-481,0
0,9715	-147,8	-414,2
0,972	-132,4	-328,8
0,9725	-112,0	-228,1
0,973	-87,3	-119,8
0,9735	-60,2	-13,0
0,974	-32,9	86,7
0,9745	-7,0	178,1
0,975	17,1	263,8
0,9755	40,0	346,9
0,976	61,7	427,1
0,9765	81,4	498,3
0,977	98,2	551,1
0,9775	111,8	578,3
0,978	122,2	578,6
0,9785	129,5	556,0
0,979	133,8	515,1
0,9795	134,3	456,9
0,98	129,9	380,3
0,9805	119,4	285,8
0,981	102,6	179,0
0,9815	80,4	68,8
0,982	54,8	-37,8
0,9825	27,6	-137,7
0,983	0,4	-231,3
0,9835	-25,8	-319,3
0,984	-50,8	-400,9
0,9845	-74,3	-473,4
0,985	-96,3	-531,3
0,9855	-116,8	-568,3
0,986	-134,7	-580,4
0,9865	-148,0	-569,1
0,987	-155,4	-538,8
0,9875	-156,2	-492,7
0,988	-150,5	-429,8
0,9885	-138,1	-348,1
0,989	-119,1	-249,9
0,9895	-94,6	-142,2
0,99	-66,8	-34,0
0,9905	-39,4	67,6
0,991	-17,7	160,2
0,9915	-5,2	245,3
0,992	-1,2	326,3
0,9925	0,5	404,8
0,993	6,1	476,8
0,9935	18,5	534,1
0,994	36,9	568,9
0,9945	58,2	578,4
0,995	79,3	565,3
0,9955	97,8	533,3
0,996	112,9	483,7
0,9965	123,9	414,8
0,997	130,0	326,3
0,9975	129,8	222,7
0,998	122,4	112,6
0,9985	107,5	4,1
0,999	86,0	-98,6
0,9995	59,8	-195,0
1	30,9	-285,2
1,0005	1,1	-368,7
1,001	-28,9	-444,0
1,0015	-58,3	-507,3
1,002	-86,3	-552,8
1,0025	-110,9	-574,9
1,003	-129,5	-572,4
1,0035	-140,4	-548,3
1,004	-143,8	-506,6
1,0045	-140,8	-448,5
1,005	-132,5	-372,9
1,0055	-118,5	-280,5
1,006	-98,1	-177,0
1,0065	-71,9	-70,8
1,007	-42,6	30,7
1,0075	-13,5	124,4
1,008	13,8	211,3
1,0085	39,5	294,8
1,009	64,2	376,7
1,0095	87,7	454,4
1,01	109,2	520,1
1,0105	127,1	564,3
1,011	140,4	582,0
1,0115	148,2	574,4
1,012	149,9	547,0
1,0125	145,6	502,9
1,013	135,8	441,2
1,0135	121,4	359,5
1,014	102,5	259,4
1,0145	79,0	148,5
1,015	50,8	36,5
1,0155	18,8	-69,7
1,016	-15,4	-168,0
1,0165	-49,0	-259,2
1,017	-80,1	-344,1
1,0175	-108,0	-421,9
1,018	-132,8	-489,9
1,0185	-153,5	-542,0
1,019	-168,8	-571,8
1,0195	-177,3	-576,2
1,02	-179,0	-558,3
1,0205	-175,1	-522,9
1,021	-166,4	-472,7
1,0215	-153,2	-406,8
1,022	-135,7	-324,3
1,0225	-117,8	-227,8
1,023	-107,6	-123,6
1,0235	-110,5	-18,8
1,024	-122,8	80,8
1,0245	-133,1	173,5
1,025	-130,7	261,0
1,0255	-110,3	346,3
1,026	-71,3	428,7
1,0265	-16,7	502,4
1,027	48,0	558,0
1,0275	115,7	588,0
1,028	178,9	591,0
1,0285	231,0	570,8
1,029	267,7	531,6
1,0295	287,0	473,9
1,03	288,7	396,3
1,0305	273,7	299,9
1,031	244,3	191,4
1,0315	204,1	80,2
1,032	157,1	-26,3
1,0325	107,3	-125,4
1,033	56,9	-218,0
1,0335	7,3	-304,9
1,034	-40,0	-386,2
1,0345	-83,6	-459,5
1,035	-122,1	-520,2
1,0355	-154,8	-561,6
1,036	-180,5	-579,3
1,0365	-197,2	-573,6
1,037	-203,8	-548,3
1,0375	-201,0	-505,8
1,038	-190,8	-445,3
1,0385	-175,1	-365,2
1,039	-154,6	-268,2
1,0395	-129,4	-161,3
1,04	-99,8	-53,8
1,0405	-67,5	47,8
1,041	-34,3	141,1
1,0415	-2,0	227,8
1,042	28,6	311,8
1,0425	57,8	394,5
1,043	86,5	471,5
1,0435	114,0	533,6
1,044	138,7	571,6
1,0445	158,5	582,0
1,045	171,2	567,9
1,0455	175,7	534,6
1,046	171,9	484,6
1,0465	160,7	416,8
1,047	143,3	330,0
1,0475	120,6	227,2
1,048	93,8	116,2
1,0485	64,8	5,6
1,049	35,9	-98,8
1,0495	7,2	-195,3
1,05	-24,6	-284,6
1,0505	-63,8	-366,6
1,051	-110,2	-440,8
1,0515	-157,8	-504,0
1,052	-198,5	-550,6
1,0525	-225,7	-574,8
1,053	-236,2	-574,7
1,0535	-229,9	-553,5
1,054	-209,8	-515,3
1,0545	-179,9	-460,8
1,055	-143,7	-388,0
1,0555	-103,7	-296,8
1,056	-62,4	-192,2
1,0565	-22,1	-82,9
1,057	14,2	22,7
1,0575	44,6	120,2
1,058	68,9	209,6
1,0585	88,3	293,9
1,059	105,2	375,8
1,0595	121,7	453,3
1,06	138,5	519,0
1,0605	154,6	563,3
1,061	167,5	581,0
1,0615	174,9	573,6
1,062	175,9	546,4
1,0625	170,3	502,8
1,063	158,6	442,3
1,0635	141,9	362,5
1,064	121,4	264,8
1,0645	98,2	155,7
1,065	72,9	44,8
1,0655	46,1	-60,8
1,066	18,3	-159,0
1,0665	-9,6	-250,2
1,067	-37,3	-335,3
1,0675	-64,4	-413,5
1,068	-90,8	-482,1
1,0685	-116,0	-535,6
1,069	-139,0	-567,7
1,0695	-157,5	-575,3
1,07	-169,2	-560,6
1,0705	-172,5	-527,4
1,071	-168,2	-477,2
1,0715	-157,8	-408,3
1,072	-143,0	-320,4
1,0725	-123,8	-217,5
1,073	-99,8	-108,2
1,0735	-71,0	-1,3
1,074	-38,9	98,0
1,0745	-5,7	189,0
1,075	25,9	274,3
1,0755	54,1	356,7
1,076	78,4	435,6
1,0765	99,8	505,1
1,077	119,4	556,3
1,0775	137,0	582,0
1,078	150,6	581,0
1,0785	158,8	557,8
1,079	161,3	517,3
1,0795	158,4	461,3
1,08	150,4	387,9
1,0805	137,3	296,8
1,081	118,5	192,6
1,0815	94,8	83,8
1,082	67,3	-22,2
1,0825	38,0	-122,0
1,083	8,4	-216,1
1,0835	-20,9	-305,1
1,084	-49,9	-388,4
1,0845	-78,5	-464,0
1,085	-105,7	-526,5
1,0855	-130,0	-568,7
1,086	-149,4	-584,7
1,0865	-162,2	-574,7
1,087	-167,3	-543,5
1,0875	-164,9	-495,7
1,088	-155,8	-431,9
1,0885	-141,1	-350,9
1,089	-121,3	-254,3
1,0895	-96,9	-148,5
1,09	-69,5	-42,6
1,0905	-41,1	56,6
1,091	-13,2	146,7
1,0915	13,8	229,8
1,092	39,6	310,0
1,0925	63,9	389,3
1,093	86,4	463,8
1,0935	106,7	524,5
1,094	124,0	562,0
1,0945	137,1	571,8
1,095	145,2	556,8
1,0955	148,1	522,7
1,096	146,5	472,8
1,0965	140,8	406,5
1,097	130,5	322,1
1,0975	114,7	222,5
1,098	93,4	114,9
1,0985	67,3	7,5
1,099	37,4	-94,8
1,0995	3,5	-190,8
1,1	-35,1	-280,9
1,1005	-77,3	-364,8
1,101	-119,5	-441,3
1,1015	-158,7	-506,8
1,102	-193,6	-554,9
1,1025	-224,2	-579,8
1,103	-250,2	-579,3
1,1035	-270,5	-557,2
1,104	-282,4	-517,8
1,1045	-283,2	-462,6
1,105	-271,3	-389,7
1,1055	-247,1	-298,7
1,106	-212,0	-194,2
1,1065	-168,2	-85,0
1,107	-119,0	20,4
1,1075	-68,0	117,4
1,108	-18,5	206,2
1,1085	26,4	289,8
1,109	65,4	370,8
1,1095	99,1	447,6
1,11	128,3	513,5
1,1105	153,6	560,0
1,111	174,1	581,8
1,1115	188,7	579,5
1,112	196,8	557,0
1,1125	197,9	517,3
1,113	191,9	459,6
1,1135	178,8	381,5
1,114	158,7	284,3
1,1145	132,8	174,8
1,115	103,1	62,5
1,1155	71,8	-45,6
1,116	39,9	-146,9
1,1165	7,8	-241,4
1,117	-24,5	-329,5
1,1175	-55,8	-410,2
1,118	-84,5	-480,9
1,1185	-109,3	-536,6
1,119	-129,5	-571,0
1,1195	-148,0	-580,5
1,12	-171,4	-567,3
1,1205	-204,3	-535,9
1,121	-243,7	-488,9
1,1215	-278,0	-424,7
1,122	-294,8	-341,2
1,1225	-287,0	-241,1
1,123	-253,7	-132,4
1,1235	-199,1	-24,5
1,124	-129,8	76,1
1,1245	-52,9	167,9
1,125	24,9	253,4
1,1255	98,1	336,2
1,126	162,4	416,9
1,1265	215,1	490,4
1,127	254,4	547,1
1,1275	279,0	578,8
1,128	288,3	583,4
1,1285	283,2	565,1
1,129	266,3	528,7
1,1295	241,6	475,6
1,13	212,9	404,0
1,1305	182,3	313,8
1,131	149,5	209,9
1,1315	114,0	100,6
1,132	75,9	-6,4
1,1325	36,3	-107,6
1,133	-3,3	-203,0
1,1335	-40,6	-293,1
1,134	-73,0	-377,6
1,1345	-98,5	-453,9
1,135	-116,9	-516,6
1,1355	-129,8	-558,8
1,136	-138,5	-575,5
1,1365	-143,3	-567,7
1,137	-144,0	-540,0
1,1375	-140,6	-496,5
1,138	-133,6	-437,1
1,1385	-122,9	-359,7
1,139	-108,3	-265,1
1,1395	-89,5	-159,7
1,14	-67,5	-52,4
1,1405	-46,4	49,5
1,141	-31,2	143,2
1,1415	-23,7	229,8
1,142	-20,4	312,8
1,1425	-14,6	394,3
1,143	-1,3	470,8
1,1435	21,0	533,8
1,144	50,2	573,6
1,1445	82,6	585,6
1,145	114,8	572,3
1,1455	143,8	539,1
1,146	166,8	489,3
1,1465	180,7	422,5
1,147	182,7	337,4
1,1475	172,2	237,3
1,148	150,1	129,7
1,1485	118,9	23,0
1,149	81,6	-78,5
1,1495	41,3	-174,2
1,15	1,0	-264,9
1,1505	-36,7	-350,3
1,151	-70,4	-428,6
1,1515	-99,5	-496,0
1,152	-123,8	-546,4
1,1525	-143,1	-573,5
1,153	-157,0	-575,2
1,1535	-165,8	-555,0
1,154	-169,4	-517,4
1,1545	-166,8	-464,1
1,155	-156,7	-393,7
1,1555	-139,0	-305,3
1,156	-114,9	-203,2
1,1565	-86,9	-95,4
1,157	-57,7	9,3
1,1575	-29,5	106,0
1,158	-3,6	194,8
1,1585	19,7	278,6
1,159	40,9	360,5
1,1595	61,0	439,4
1,16	80,9	508,2
1,1605	100,6	557,4
1,161	118,7	580,3
1,1615	132,5	576,8
1,162	140,6	551,8
1,1625	143,4	509,6
1,163	141,9	450,7
1,1635	136,3	373,1
1,164	125,7	278,0
1,1645	109,0	171,3
1,165	86,7	61,7
1,1655	60,2	-43,8
1,166	31,7	-142,8
1,1665	2,7	-235,7
1,167	-26,1	-322,8
1,1675	-53,8	-403,7
1,168	-79,8	-475,5
1,1685	-103,5	-533,0
1,169	-124,3	-569,5
1,1695	-140,8	-580,9
1,17	-150,9	-568,2
1,1705	-153,1	-536,0
1,171	-147,9	-487,0
1,1715	-137,0	-420,7
1,172	-122,3	-335,7
1,1725	-104,1	-235,0
1,173	-82,1	-126,5
1,1735	-56,5	-19,1
1,174	-28,6	80,9
1,1745	0,1	171,8
1,175	28,4	255,8
1,1755	55,5	336,6
1,176	81,3	415,3
1,1765	105,8	487,1
1,177	128,1	543,0
1,1775	146,9	575,0
1,178	160,7	580,7
1,1785	168,6	563,5
1,179	170,1	528,2
1,1795	164,7	475,9
1,18	151,6	404,4
1,1805	130,6	313,0
1,181	102,6	206,5
1,1815	68,7	94,6
1,182	29,6	-13,8
1,1825	-12,7	-114,7
1,183	-55,2	-208,4
1,1835	-94,5	-296,3
1,184	-128,3	-378,3
1,1845	-155,9	-452,7
1,185	-177,9	-514,8
1,1855	-194,7	-557,8
1,186	-206,2	-576,4
1,1865	-211,3	-570,4
1,187	-209,7	-544,3
1,1875	-201,6	-502,0
1,188	-187,9	-443,8
1,1885	-169,1	-367,4
1,189	-145,1	-273,5
1,1895	-116,3	-168,5
1,19	-83,3	-62,1
1,1905	-47,8	38,2
1,191	-11,3	130,1
1,1915	23,9	216,2
1,192	56,6	300,1
1,1925	86,5	383,4
1,193	113,7	462,3
1,1935	138,0	527,5
1,194	158,3	569,8
1,1945	173,3	584,8
1,195	181,7	574,8
1,1955	183,4	545,3
1,196	179,6	499,2
1,1965	171,4	435,3
1,197	159,5	352,1
1,1975	143,0	252,8
1,198	121,3	145,2
1,1985	94,3	38,0
1,199	63,8	-63,8
1,1995	31,8	-159,3
1,2	0,6	-249,4
1,2005	-28,9	-334,3
1,201	-56,8	-412,3
1,2015	-84,8	-479,8
1,202	-113,5	-531,1
1,2025	-142,1	-559,9
1,203	-168,5	-564,0
1,2035	-191,5	-545,7
1,204	-209,8	-509,5
1,2045	-220,9	-457,0
1,205	-221,6	-387,1
1,2055	-210,1	-299,2
1,206	-186,4	-197,4
1,2065	-152,6	-90,2
1,207	-112,2	13,3
1,2075	-69,0	107,5
1,208	-25,7	192,4
1,2085	16,2	272,2
1,209	55,9	351,2
1,2095	93,3	428,8
1,21	127,6	498,3
1,2105	157,7	549,3
1,211	181,8	575,0
1,2115	198,4	574,8
1,212	206,8	552,8
1,2125	207,2	512,5
1,213	200,3	453,8
1,2135	187,2	374,8
1,214	167,8	276,9
1,2145	142,4	167,0
1,215	111,6	54,9
1,2155	77,2	-51,8
1,216	41,5	-151,0
1,2165	5,9	-243,8
1,217	-28,4	-331,4
1,2175	-60,8	-413,2
1,218	-90,1	-485,9
1,2185	-115,2	-543,9
1,219	-135,7	-580,5
1,2195	-151,3	-591,5
1,22	-161,3	-578,2
1,2205	-165,3	-545,5
1,221	-162,9	-496,8
1,2215	-154,8	-431,5
1,222	-141,5	-348,1
1,2225	-123,4	-248,3
1,223	-101,1	-139,4
1,2235	-75,5	-30,2
1,224	-48,0	72,3
1,2245	-20,1	165,9
1,225	7,3	252,6
1,2255	33,5	335,8
1,226	58,2	416,6
1,2265	80,2	490,3
1,227	98,2	548,0
1,2275	111,3	581,7
1,228	119,4	589,1
1,2285	123,0	573,4
1,229	120,5	539,2
1,2295	107,8	487,8
1,23	81,8	417,6
1,2305	44,6	328,4
1,231	3,5	224,4
1,2315	-33,8	113,4
1,232	-63,5	3,0
1,2325	-84,3	-102,3
1,233	-96,8	-200,9
1,2335	-102,5	-292,2
1,234	-103,3	-375,8
1,2345	-101,4	-450,6
1,235	-98,7	-513,1
1,2355	-96,4	-557,4
1,236	-95,1	-577,9
1,2365	-94,4	-573,6
1,237	-94,0	-548,5
1,2375	-93,4	-506,9
1,238	-92,1	-449,6
1,2385	-88,8	-374,7
1,239	-81,8	-282,6
1,2395	-69,5	-178,6
1,24	-52,0	-71,3
1,2405	-30,8	31,5
1,241	-7,6	126,0
1,2415	16,0	213,1
1,242	38,9	296,4
1,2425	61,1	378,6
1,243	83,5	456,9
1,2435	106,7	522,9
1,244	129,6	566,9
1,2445	146,8	583,8
1,245	148,2	575,5
1,2455	125,7	547,5
1,246	81,3	502,8
1,2465	27,5	441,1
1,247	-21,3	360,6
1,2475	-56,7	263,3
1,248	-76,2	156,1
1,2485	-81,0	47,2
1,249	-73,7	-57,9
1,2495	-58,1	-157,9
1,25	-38,6	-252,9
1,2505	-19,8	-342,1
1,251	-6,3	-423,2
1,2515	-0,8	-492,6
1,252	-4,8	-544,9
1,2525	-17,3	-574,7
1,253	-36,5	-579,8
1,2535	-58,7	-562,8
1,254	-79,4	-527,7
1,2545	-94,8	-476,7
1,255	-102,5	-408,4
1,2555	-101,9	-322,3
1,256	-93,8	-222,4
1,2565	-79,8	-116,2
1,257	-61,1	-12,0
1,2575	-39,4	85,3
1,258	-16,0	175,1
1,2585	8,7	260,5
1,259	35,5	344,2
1,2595	65,7	425,4
1,26	98,4	497,3
1,2605	129,0	550,2
1,261	151,5	577,2
1,2615	161,8	577,3
1,262	160,4	555,0
1,2625	150,8	514,8
1,263	136,3	457,8
1,2635	117,2	382,4
1,264	92,8	289,3
1,2645	63,3	184,2
1,265	31,2	75,8
1,2655	-0,5	-28,7
1,266	-29,8	-126,9
1,2665	-56,0	-219,3
1,267	-78,9	-306,3
1,2675	-98,7	-387,5
1,268	-115,6	-460,3
1,2685	-129,8	-519,6
1,269	-140,8	-558,7
1,2695	-147,8	-573,0
1,27	-149,8	-563,2
1,2705	-146,4	-533,5
1,271	-138,5	-487,2
1,2715	-126,6	-424,1
1,272	-110,8	-342,5
1,2725	-90,8	-244,3
1,273	-66,9	-136,7
1,2735	-40,2	-28,5
1,274	-12,3	73,2
1,2745	15,2	165,6
1,275	41,0	250,1
1,2755	64,7	329,9
1,276	86,6	406,3
1,2765	107,0	476,1
1,277	126,1	531,4
1,2775	143,3	564,8
1,278	157,6	573,5
1,2785	168,0	560,1
1,279	173,8	529,1
1,2795	174,0	481,8
1,28	167,8	416,4
1,2805	154,1	331,3
1,281	133,3	229,9
1,2815	106,7	120,6
1,282	77,1	11,8
1,2825	47,1	-92,0
1,283	17,7	-190,3
1,2835	-11,4	-283,6
1,284	-40,2	-371,0
1,2845	-68,5	-450,2
1,285	-95,2	-516,4
1,2855	-118,8	-563,2
1,286	-137,7	-585,0
1,2865	-150,5	-581,4
1,287	-156,6	-556,9
1,2875	-156,0	-516,5
1,288	-149,6	-460,9
1,2885	-137,8	-387,8
1,289	-121,1	-296,5
1,2895	-99,6	-191,6
1,29	-74,0	-82,0
1,2905	-45,8	24,1
1,291	-16,6	122,1
1,2915	12,9	212,6
1,292	41,8	298,8
1,2925	69,8	382,9
1,293	96,4	462,6
1,2935	121,2	529,8
1,294	142,8	575,1
1,2945	159,4	593,0
1,295	169,8	584,8
1,2955	173,8	556,0
1,296	171,7	510,4
1,2965	163,0	447,8
1,297	146,5	366,8
1,2975	121,8	269,2
1,298	90,5	162,2
1,2985	55,8	54,3
1,299	21,0	-48,6
1,2995	-11,7	-144,9
1,3	-41,3	-235,5
1,3005	-67,6	-320,6
1,301	-91,2	-399,9
1,3015	-112,8	-470,7
1,302	-132,7	-527,3
1,3025	-150,1	-562,4
1,303	-163,0	-571,8
1,3035	-169,6	-557,8
1,304	-169,0	-525,2
1,3045	-161,7	-476,8
1,305	-148,8	-411,2
1,3055	-131,1	-326,8
1,306	-109,1	-226,9
1,3065	-83,4	-119,7
1,307	-55,2	-14,0
1,3075	-25,8	84,8
1,308	3,2	176,1
1,3085	30,7	262,7
1,309	56,3	346,9
1,3095	80,2	427,5
1,31	102,5	497,7
1,3105	123,0	547,8
1,311	140,6	571,0
1,3115	154,0	567,4
1,312	162,1	542,9
1,3125	164,6	503,0
1,313	161,5	448,7
1,3135	152,7	377,6
1,314	137,9	288,6
1,3145	117,6	186,6
1,315	92,6	79,6
1,3155	64,4	-25,1
1,316	34,6	-124,4
1,3165	3,7	-218,4
1,317	-29,0	-307,5
1,3175	-65,5	-391,3
1,318	-105,8	-467,8
1,3185	-146,6	-531,5
1,319	-182,2	-574,9
1,3195	-208,1	-592,0
1,32	-222,4	-583,2
1,3205	-225,3	-553,5
1,321	-218,3	-507,4
1,3215	-203,1	-445,3
1,322	-181,1	-365,5
1,3225	-152,8	-269,3
1,323	-119,3	-162,8
1,3235	-82,0	-54,2
1,324	-44,3	49,0
1,3245	-9,3	143,9
1,325	20,9	231,9
1,3255	45,4	316,2
1,326	64,9	398,3
1,3265	80,6	474,3
1,327	94,2	535,7
1,3275	106,6	573,6
1,328	117,2	584,4
1,3285	124,8	570,8
1,329	128,4	538,1
1,3295	127,9	488,5
1,33	122,8	421,0
1,3305	112,3	334,2
1,331	96,1	231,4
1,3315	74,9	120,5
1,332	50,8	10,0
1,3325	26,5	-94,7
1,333	3,5	-192,2
1,3335	-19,1	-282,6
1,334	-43,3	-366,1
1,3345	-70,3	-442,4
1,335	-99,3	-508,3
1,3355	-129,0	-557,2
1,336	-156,6	-582,2
1,3365	-179,1	-581,2
1,337	-193,9	-557,6
1,3375	-202,3	-516,6
1,338	-208,2	-460,0
1,3385	-213,5	-386,1
1,339	-214,9	-294,1
1,3395	-207,2	-188,9
1,34	-191,7	-79,3
1,3405	-176,8	26,2
1,341	-168,8	122,8
1,3415	-164,1	211,3
1,342	-152,2	295,1
1,3425	-124,9	377,3
1,343	-81,5	456,0
1,3435	-25,5	523,7
1,344	37,4	570,6
1,3445	100,9	590,9
1,345	159,7	585,4
1,3455	209,3	559,3
1,346	246,8	516,3
1,3465	270,3	456,3
1,347	278,5	377,0
1,3475	271,2	280,1
1,348	248,8	171,9
1,3485	213,3	61,6
1,349	168,0	-44,2
1,3495	117,6	-143,0
1,35	66,2	-236,0
1,3505	16,6	-323,8
1,351	-29,2	-405,9
1,3515	-69,3	-478,7
1,352	-102,2	-536,2
1,3525	-127,2	-571,3
1,353	-144,7	-580,1
1,3535	-155,4	-564,4
1,354	-159,2	-529,6
1,3545	-154,9	-479,0
1,355	-141,8	-411,9
1,3555	-121,0	-326,9
1,356	-95,1	-227,1
1,3565	-66,5	-120,2
1,357	-36,7	-14,9
1,3575	-6,3	83,1
1,358	23,9	173,0
1,3585	53,0	257,5
1,359	80,7	339,9
1,3595	107,3	420,3
1,36	132,8	492,9
1,3605	155,7	548,0
1,361	174,0	577,9
1,3615	185,9	581,0
1,362	190,9	561,4
1,3625	189,5	523,9
1,363	182,5	469,8
1,3635	170,2	397,1
1,364	152,0	305,8
1,3645	127,0	200,9
1,365	95,5	91,1
1,3655	59,5	-16,0
1,366	21,8	-117,1
1,3665	-14,5	-212,3
1,367	-47,8	-301,9
1,3675	-77,6	-385,1
1,368	-103,7	-459,2
1,3685	-126,3	-519,7
1,369	-145,5	-560,5
1,3695	-160,5	-577,0
1,37	-170,0	-569,5
1,3705	-173,5	-542,4
1,371	-171,1	-499,4
1,3715	-163,5	-440,1
1,372	-151,0	-362,4
1,3725	-133,2	-267,0
1,373	-109,9	-160,3
1,3735	-81,8	-51,1
1,374	-50,7	52,8
1,3745	-18,8	148,6
1,375	11,5	237,3
1,3755	38,7	322,2
1,376	62,7	404,6
1,3765	84,5	481,3
1,377	105,3	543,8
1,3775	124,4	583,1
1,378	139,7	595,2
1,3785	149,3	582,7
1,379	153,3	550,8
1,3795	152,5	502,3
1,38	147,5	436,1
1,3805	137,6	351,3
1,381	121,2	250,4
1,3815	98,2	140,6
1,382	70,6	29,9
1,3825	40,8	-76,0
1,383	11,1	-175,2
1,3835	-18,0	-267,5
1,384	-46,5	-353,1
1,3845	-74,4	-431,0
1,385	-101,5	-497,7
1,3855	-127,5	-547,1
1,386	-151,8	-573,0
1,3865	-172,3	-573,8
1,387	-186,4	-552,8
1,3875	-192,8	-514,8
1,388	-191,3	-461,3
1,3885	-182,4	-390,2
1,389	-166,6	-301,1
1,3895	-144,0	-198,2
1,39	-115,7	-90,1
1,3905	-83,4	14,3
1,391	-49,2	110,1
1,3915	-15,5	197,7
1,392	16,8	280,7
1,3925	47,6	362,2
1,393	77,7	440,7
1,3935	106,8	508,6
1,394	133,2	556,1
1,3945	154,8	577,4
1,395	169,6	572,9
1,3955	176,8	547,7
1,396	177,2	505,6
1,3965	171,4	446,6
1,397	159,2	368,8
1,3975	139,5	273,3
1,398	111,9	166,6
1,3985	77,7	57,5
1,399	39,8	-47,2
1,3995	1,3	-144,9
1,4	-35,6	-235,9
1,4005	-69,4	-320,8
1,401	-99,5	-399,1
1,4015	-125,6	-468,4
1,402	-147,3	-523,4
1,4025	-164,2	-557,3
1,403	-175,5	-565,8
1,4035	-180,6	-550,8
1,404	-179,2	-517,3
1,4045	-171,8	-468,2
1,405	-159,0	-402,8
1,4055	-141,3	-319,9
1,406	-118,2	-222,7
1,4065	-89,9	-119,3
1,407	-57,4	-18,9
1,4075	-22,9	72,8
1,408	10,7	155,6
1,4085	41,9	233,7
1,409	70,3	311,8
1,4095	96,2	390,6
1,41	120,0	464,8
1,4105	141,0	524,4
1,411	157,5	560,8
1,4115	167,0	570,5
1,412	166,8	556,3
1,4125	156,3	522,4
1,413	138,3	470,5
1,4135	115,9	399,3
1,414	90,5	308,8
1,4145	62,5	204,5
1,415	33,1	94,8
1,4155	4,3	-12,7
1,416	-21,9	-114,0
1,4165	-44,5	-209,1
1,417	-63,3	-298,0
1,4175	-79,4	-380,3
1,418	-93,5	-454,6
1,4185	-106,6	-516,6
1,419	-118,8	-559,8
1,4195	-129,3	-578,7
1,42	-135,9	-572,8
1,4205	-137,5	-546,7
1,421	-133,8	-504,6
1,4215	-125,7	-446,7
1,422	-113,8	-370,7
1,4225	-98,3	-277,4
1,423	-78,7	-172,5
1,4235	-55,8	-65,0
1,424	-30,8	37,7
1,4245	-5,9	132,3
1,425	17,9	220,2
1,4255	40,7	304,9
1,426	63,4	388,2
1,4265	86,7	466,3
1,427	109,9	530,2
1,4275	131,2	570,6
1,428	148,2	583,8
1,4285	158,9	572,2
1,429	162,4	541,3
1,4295	158,6	494,3
1,43	147,2	430,1
1,4305	125,8	347,0
1,431	91,3	247,8
1,4315	42,8	139,8
1,432	-14,4	31,8
1,4325	-70,3	-71,0
1,433	-116,2	-167,3
1,4335	-148,4	-257,6
1,434	-167,4	-342,2
1,4345	-175,7	-420,2
1,435	-176,1	-488,5
1,4355	-170,9	-541,1
1,436	-161,4	-571,3
1,4365	-148,3	-576,1
1,437	-132,8	-558,1
1,4375	-116,7	-522,0
1,438	-101,0	-469,5
1,4385	-85,7	-398,8
1,439	-69,0	-309,2
1,4395	-50,1	-205,2
1,44	-29,7	-96,0
1,4405	-8,9	9,3
1,441	11,6	105,8
1,4415	31,9	193,7
1,442	52,8	277,0
1,4425	74,4	359,0
1,443	96,5	439,0
1,4435	118,3	509,9
1,444	138,1	562,1
1,4445	154,5	588,0
1,445	166,4	586,9
1,4455	173,6	563,3
1,446	175,9	521,8
1,4465	172,9	463,4
1,447	164,1	386,3
1,4475	148,6	290,8
1,448	126,7	182,7
1,4485	99,4	70,9
1,449	68,3	-37,3
1,4495	34,0	-139,0
1,45	-2,6	-234,1
1,4505	-40,3	-323,0
1,451	-76,7	-404,9
1,4515	-109,7	-477,2
1,452	-137,5	-534,5
1,4525	-159,3	-570,2
1,453	-174,5	-580,1
1,4535	-182,5	-565,8
1,454	-183,7	-532,3
1,4545	-178,8	-483,2
1,455	-168,6	-417,7
1,4555	-153,3	-334,3
1,456	-132,7	-235,1
1,4565	-106,9	-127,5
1,457	-77,2	-20,6
1,4575	-45,6	79,2
1,458	-14,1	169,7
1,4585	16,1	253,1
1,459	44,5	332,9
1,4595	71,4	409,8
1,46	97,0	479,6
1,4605	121,0	534,1
1,461	142,0	566,1
1,4615	158,5	573,1
1,462	169,0	557,8
1,4625	172,6	524,3
1,463	168,8	473,4
1,4635	157,9	403,7
1,464	140,3	314,7
1,4645	116,8	210,8
1,465	89,2	100,5
1,4655	59,6	-7,7
1,466	30,0	-109,6
1,4665	1,1	-204,7
1,467	-27,7	-293,5
1,4675	-56,6	-376,1
1,468	-84,7	-450,8
1,4685	-110,7	-513,4
1,469	-132,9	-557,3
1,4695	-150,0	-576,3
1,47	-160,9	-570,1
1,4705	-165,8	-543,2
1,471	-166,2	-500,3
1,4715	-163,2	-442,0
1,472	-156,7	-365,9
1,4725	-145,8	-272,4
1,473	-130,7	-167,2
1,4735	-112,9	-59,1
1,474	-95,4	43,7
1,4745	-79,7	137,5
1,475	-65,4	223,2
1,4755	-49,9	304,6
1,476	-30,5	384,5
1,4765	-6,0	460,3
1,477	22,6	523,9
1,4775	52,5	566,0
1,478	79,7	581,6
1,4785	101,1	572,4
1,479	115,9	543,6
1,4795	124,8	498,3
1,48	128,3	435,3
1,4805	126,6	352,5
1,481	119,1	252,5
1,4815	101,5	142,9
1,482	66,2	32,6
1,4825	9,8	-72,5
1,483	-61,3	-170,8
1,4835	-133,2	-262,7
1,484	-193,3	-347,6
1,4845	-235,6	-424,8
1,485	-258,3	-491,4
1,4855	-261,7	-542,2
1,486	-247,2	-571,2
1,4865	-217,4	-575,8
1,487	-177,1	-559,0
1,4875	-133,1	-525,4
1,488	-92,6	-475,9
1,4885	-59,5	-408,2
1,489	-33,3	-320,6
1,4895	-11,0	-217,6
1,49	9,9	-108,0
1,4905	30,0	-1,1
1,491	48,6	97,7
1,4915	65,7	187,5
1,492	82,0	271,1
1,4925	98,9	351,8
1,493	117,4	429,7
1,4935	137,2	499,0
1,494	156,7	550,1
1,4945	172,8	575,7
1,495	182,9	574,9
1,4955	186,4	552,4
1,496	184,8	512,2
1,4965	179,6	454,3
1,497	171,2	377,0
1,4975	158,1	281,2
1,498	139,2	173,9
1,4985	114,8	64,2
1,499	86,3	-40,8
1,4995	56,0	-138,9
1,5	25,4	-230,9
1,5005	-4,3	-317,3
1,501	-32,5	-397,3
1,5015	-58,8	-468,1
1,502	-83,6	-524,8
1,5025	-106,5	-561,2
1,503	-126,1	-573,2
1,5035	-141,3	-562,0
1,504	-153,0	-532,0
1,5045	-162,7	-486,1
1,505	-170,3	-423,6
1,5055	-172,3	-342,5
1,506	-165,0	-244,6
1,5065	-147,1	-136,9
1,507	-119,9	-28,4
1,5075	-86,2	74,0
1,508	-48,7	167,9
1,5085	-9,8	254,6
1,509	28,6	336,7
1,5095	65,5	414,5
1,51	100,6	483,6
1,5105	133,3	536,1
1,511	162,0	565,2
1,5115	184,7	568,9
1,512	199,8	550,8
1,5125	205,9	515,3
1,513	202,0	464,5
1,5135	187,6	396,4
1,514	163,8	309,7
1,5145	132,9	208,0
1,515	98,1	99,3
1,5155	62,0	-7,5
1,516	26,7	-107,8
1,5165	-7,2	-200,9
1,517	-39,5	-288,2
1,5175	-70,2	-370,0
1,518	-99,0	-444,8
1,5185	-124,9	-508,5
1,519	-146,6	-554,7
1,5195	-162,8	-577,3
1,52	-172,8	-575,3
1,5205	-177,6	-552,3
1,521	-178,9	-512,2
1,5215	-178,0	-455,8
1,522	-173,6	-381,0
1,5225	-163,3	-287,8
1,523	-145,5	-181,8
1,5235	-120,5	-71,8
1,524	-90,4	33,7
1,5245	-57,9	130,3
1,525	-25,1	218,6
1,5255	5,4	302,4
1,526	29,3	383,9
1,5265	43,3	460,9
1,527	48,2	525,2
1,5275	50,0	567,6
1,528	54,7	583,7
1,5285	65,0	575,8
1,529	79,9	549,0
1,5295	97,0	506,3
1,53	113,7	446,5
1,5305	127,9	366,9
1,531	136,9	269,2
1,5315	138,3	160,0
1,532	130,8	48,4
1,5325	115,4	-59,2
1,533	93,9	-160,5
1,5335	67,3	-255,5
1,534	36,5	-343,7
1,5345	2,9	-423,2
1,535	-31,8	-491,3
1,5355	-65,1	-542,8
1,536	-94,3	-572,2
1,5365	-116,4	-577,2
1,537	-129,8	-560,5
1,5375	-134,9	-526,3
1,538	-134,2	-476,4
1,5385	-130,1	-408,9
1,539	-123,1	-322,6
1,5395	-111,5	-221,2
1,54	-93,0	-113,1
1,5405	-67,2	-7,3
1,541	-36,3	90,3
1,5415	-4,0	179,5
1,542	27,3	263,8
1,5425	56,2	346,8
1,543	81,6	427,7
1,5435	102,7	499,8
1,544	119,1	553,1
1,5445	131,3	580,4
1,545	139,6	581,3
1,5455	144,2	560,0
1,546	144,3	520,9
1,5465	139,7	464,8
1,547	129,8	389,8
1,5475	114,3	296,4
1,548	92,8	189,7
1,5485	66,4	77,8
1,549	37,2	-31,6
1,5495	7,6	-134,5
1,55	-20,8	-229,9
1,5505	-46,9	-317,9
1,551	-70,7	-398,5
1,5515	-92,5	-470,2
1,552	-112,9	-528,6
1,5525	-131,7	-567,0
1,553	-147,7	-581,0
1,5535	-159,1	-571,5
1,554	-164,8	-543,3
1,5545	-164,8	-499,5
1,555	-159,1	-438,6
1,5555	-146,8	-358,2
1,556	-127,3	-260,1
1,5565	-101,2	-151,9
1,557	-71,5	-43,4
1,5575	-42,1	58,3
1,558	-16,0	150,9
1,5585	6,1	236,8
1,559	26,1	319,9
1,5595	46,4	401,3
1,56	68,8	477,2
1,5605	92,9	538,5
1,561	116,8	576,7
1,5615	137,0	588,3
1,562	150,9	575,7
1,5625	157,9	543,6
1,563	158,9	494,0
1,5635	154,5	425,7
1,564	144,2	337,0
1,5645	127,0	231,3
1,565	103,1	116,6
1,5655	74,6	2,6
1,566	44,3	-104,4
1,5665	14,4	-202,5
1,567	-14,2	-292,2
1,5675	-41,8	-374,3
1,568	-68,8	-448,5
1,5685	-94,9	-511,7
1,569	-119,6	-557,7
1,5695	-141,7	-580,6
1,57	-159,8	-578,8
1,5705	-172,5	-555,8
1,571	-178,8	-516,1
1,5715	-178,2	-460,7
1,572	-170,5	-387,6
1,5725	-155,0	-296,5
1,573	-131,5	-192,3
1,5735	-101,2	-83,4
1,574	-67,2	21,7
1,5745	-33,3	118,8
1,575	-1,8	208,1
1,5755	26,5	292,6
1,576	51,8	374,8
1,5765	73,4	452,8
1,577	90,3	519,0
1,5775	102,1	564,3
1,578	109,3	583,1
1,5785	113,2	576,6
1,579	114,4	549,8
1,5795	113,0	505,8
1,58	108,7	444,3
1,5805	100,5	364,1
1,581	88,0	267,0
1,5815	71,7	159,9
1,582	52,4	51,0
1,5825	30,8	-53,5
1,583	5,3	-151,6
1,5835	-30,1	-243,9
1,584	-82,2	-330,6
1,5845	-150,8	-410,8
1,585	-225,2	-481,2
1,5855	-290,4	-535,8
1,586	-336,3	-568,1
1,5865	-358,1	-574,8
1,587	-356,1	-558,4
1,5875	-333,3	-523,7
1,588	-293,5	-472,9
1,5885	-240,9	-404,8
1,589	-179,6	-318,8
1,5895	-114,8	-218,6
1,59	-52,2	-112,3
1,5905	3,3	-7,9
1,591	48,4	89,6
1,5915	83,0	179,6
1,592	108,6	264,8
1,5925	128,2	348,2
1,593	144,9	429,5
1,5935	160,7	502,5
1,594	176,0	557,7
1,5945	189,4	587,6
1,595	198,8	590,8
1,5955	202,3	571,1
1,596	199,4	532,6
1,5965	190,0	476,2
1,597	174,2	399,7
1,5975	152,9	303,4
1,598	128,9	193,3
1,5985	104,7	79,3
1,599	81,0	-30,3
1,5995	57,0	-131,9
1,6	31,8	-226,5
1,6005	4,8	-315,4
1,601	-23,7	-398,6
1,6015	-53,0	-473,7
1,602	-81,7	-535,1
1,6025	-107,5	-576,1
1,603	-128,5	-592,0
1,6035	-143,0	-583,3
1,604	-150,4	-554,8
1,6045	-150,9	-509,9
1,605	-145,1	-448,8
1,6055	-133,8	-369,6
1,606	-117,8	-273,3
1,6065	-99,9	-166,1
1,607	-83,8	-57,0
1,6075	-72,2	46,3
1,608	-63,7	141,0
1,6085	-53,8	228,5
1,609	-38,6	312,4
1,6095	-16,7	394,9
1,61	11,3	472,3
1,6105	43,7	535,5
1,611	77,5	575,2
1,6115	109,0	587,3
1,612	135,1	574,4
1,6125	154,2	541,7
1,613	165,9	491,9
1,6135	170,2	424,1
1,614	165,9	337,2
1,6145	151,0	234,8
1,615	124,2	125,1
1,6155	87,3	16,9
1,616	44,9	-85,0
1,6165	2,2	-180,3
1,617	-37,5	-270,4
1,6175	-72,8	-356,2
1,618	-103,8	-436,4
1,6185	-130,3	-507,2
1,619	-152,2	-561,1
1,6195	-168,8	-590,6
1,62	-179,3	-592,9
1,6205	-182,9	-571,4
1,621	-179,7	-531,3
1,6215	-169,7	-474,8
1,622	-153,1	-400,8
1,6225	-129,9	-309,5
1,623	-100,9	-205,4
1,6235	-67,6	-96,9
1,624	-32,3	8,1
1,6245	2,6	104,9
1,625	34,6	193,4
1,6255	62,4	276,7
1,626	86,5	358,2
1,6265	108,4	437,3
1,627	129,3	507,0
1,6275	148,5	557,2
1,628	164,5	581,1
1,6285	175,4	578,4
1,629	180,2	553,8
1,6295	178,6	511,5
1,63	170,9	451,8
1,6305	157,4	372,8
1,631	138,0	275,9
1,6315	112,6	167,3
1,632	80,3	56,1
1,6325	38,7	-50,3
1,633	-13,7	-149,3
1,6335	-74,3	-241,3
1,634	-135,8	-326,8
1,6345	-189,1	-405,7
1,635	-228,2	-475,4
1,6355	-251,4	-530,5
1,636	-260,0	-564,3
1,6365	-256,2	-572,7
1,637	-242,7	-557,5
1,6375	-221,5	-523,5
1,638	-194,7	-473,5
1,6385	-163,7	-406,6
1,639	-130,1	-321,4
1,6395	-95,0	-220,9
1,64	-59,3	-112,6
1,6405	-23,9	-5,1
1,641	9,6	95,4
1,6415	39,7	187,3
1,642	65,7	272,9
1,6425	88,2	355,3
1,643	108,8	434,5
1,6435	128,4	505,1
1,644	146,8	557,7
1,6445	162,1	585,5
1,645	171,9	587,0
1,6455	174,6	566,2
1,646	170,8	527,6
1,6465	163,2	473,2
1,647	153,4	401,4
1,6475	141,0	312,0
1,648	124,0	209,1
1,6485	101,3	100,8
1,649	73,8	-5,6
1,6495	43,7	-106,6
1,65	12,9	-202,3
1,6505	-16,9	-292,8
1,651	-45,0	-376,6
1,6515	-71,8	-450,7
1,652	-97,3	-510,7
1,6525	-120,9	-550,8
1,653	-140,6	-566,9
1,6535	-154,5	-559,4
1,654	-161,4	-532,7
1,6545	-161,0	-490,3
1,655	-153,6	-432,4
1,6555	-139,7	-356,7
1,656	-119,9	-263,6
1,6565	-95,3	-159,1
1,657	-67,7	-52,3
1,6575	-39,2	49,1
1,658	-11,5	142,0
1,6585	14,9	228,0
1,659	40,3	311,1
1,6595	65,2	393,2
1,66	89,4	470,5
1,6605	112,3	533,5
1,661	131,8	572,6
1,6615	145,9	583,3
1,662	153,0	568,5
1,6625	153,1	534,3
1,663	147,2	484,3
1,6635	136,4	417,9
1,664	120,3	333,6
1,6645	97,2	233,9
1,665	66,1	126,4
1,6655	27,9	19,4
1,666	-14,3	-82,2
1,6665	-56,5	-177,6
1,667	-94,9	-267,9
1,6675	-127,3	-353,1
1,668	-153,2	-431,2
1,6685	-173,5	-498,2
1,669	-189,3	-548,2
1,6695	-200,8	-575,3
1,67	-206,9	-578,3
1,6705	-206,5	-560,3
1,671	-199,8	-525,5
1,6715	-187,4	-474,2
1,672	-169,8	-403,6
1,6725	-146,7	-312,6
1,673	-118,0	-206,3
1,6735	-85,1	-94,3
1,674	-49,8	14,4
1,6745	-13,9	114,5
1,675	21,5	205,8
1,6755	55,8	291,3
1,676	88,2	373,8
1,6765	117,5	452,0
1,677	142,7	518,9
1,6775	162,9	565,2
1,678	177,7	585,0
1,6785	186,2	578,7
1,679	188,2	551,7
1,6795	184,0	508,3
1,68	174,4	449,0
1,6805	160,0	371,6
1,681	140,5	276,7
1,6815	115,8	170,0
1,682	86,8	60,3
1,6825	55,6	-45,4
1,683	23,9	-144,4
1,6835	-7,1	-237,1
1,684	-37,2	-324,3
1,6845	-66,0	-405,3
1,685	-93,2	-476,9
1,6855	-117,9	-533,5
1,686	-138,9	-568,5
1,6865	-154,7	-578,0
1,687	-164,0	-564,0
1,6875	-166,6	-531,4
1,688	-163,3	-483,4
1,6885	-154,5	-419,2
1,689	-140,1	-336,9
1,6895	-119,6	-238,8
1,69	-93,8	-131,8
1,6905	-64,6	-25,2
1,691	-34,4	74,6
1,6915	-5,6	165,3
1,692	20,7	248,9
1,6925	44,2	329,3
1,693	66,3	408,1
1,6935	87,6	481,2
1,694	107,6	539,3
1,6945	124,7	573,6
1,695	136,6	580,8
1,6955	142,4	564,3
1,696	142,4	529,0
1,6965	137,4	476,6
1,697	127,7	405,7
1,6975	111,8	315,8
1,698	83,2	211,7
1,6985	35,0	102,2
1,699	-33,1	-4,7
1,6995	-111,2	-105,0
1,7	-184,6	-198,9
1,7005	-241,9	-287,3
1,701	-277,8	-370,3
1,7015	-291,8	-445,9
1,702	-286,6	-509,3
1,7025	-266,4	-553,7
1,703	-235,5	-573,3
1,7035	-197,8	-567,8
1,704	-157,8	-541,7
1,7045	-119,4	-499,8
1,705	-85,3	-442,8
1,7055	-56,4	-368,8
1,706	-31,9	-277,6
1,7065	-10,3	-174,3
1,707	9,9	-67,4
1,7075	30,2	35,3
1,708	50,9	130,2
1,7085	70,9	218,3
1,709	87,9	303,1
1,7095	99,2	386,7
1,71	103,7	465,7
1,7105	103,2	531,4
1,711	100,8	574,5
1,7115	99,3	590,3
1,712	99,8	580,9
1,7125	101,9	551,6
1,713	104,6	505,2
1,7135	106,5	440,8
1,714	105,8	356,8
1,7145	101,3	256,3
1,715	92,7	146,8
1,7155	80,7	37,2
1,716	66,0	-67,0
1,7165	48,3	-164,5
1,717	27,1	-255,7
1,7175	2,4	-340,8
1,718	-24,6	-418,9
1,7185	-52,2	-486,5
1,719	-78,5	-538,0
1,7195	-101,2	-566,8
1,72	-118,6	-570,2
1,7205	-129,5	-551,1
1,721	-134,2	-514,3
1,7215	-133,5	-461,9
1,722	-127,6	-392,3
1,7225	-115,8	-304,5
1,723	-96,9	-202,4
1,7235	-71,2	-94,3
1,724	-40,4	11,1
1,7245	-7,4	108,2
1,725	24,8	196,6
1,7255	53,9	279,4
1,726	78,3	359,9
1,7265	98,0	437,2
1,727	114,8	504,9
1,7275	130,3	553,7
1,728	144,0	577,3
1,7285	154,5	575,4
1,729	160,5	552,9
1,7295	161,8	513,9
1,73	158,4	458,7
1,7305	149,9	384,9
1,731	135,6	293,1
1,7315	115,1	188,8
1,732	89,2	80,6
1,7325	59,8	-23,8
1,733	28,8	-121,7
1,7335	-2,8	-213,4
1,734	-34,4	-299,8
1,7345	-65,2	-380,2
1,735	-94,0	-451,6
1,7355	-120,0	-508,3
1,736	-142,0	-543,5
1,7365	-158,6	-553,1
1,737	-168,1	-538,8
1,7375	-170,1	-505,6
1,738	-165,8	-457,5
1,7385	-157,5	-394,3
1,739	-147,0	-314,9
1,7395	-136,4	-221,9
1,74	-128,7	-121,6
1,7405	-124,3	-21,2
1,741	-119,9	74,4
1,7415	-110,3	163,3
1,742	-91,9	246,8
1,7425	-63,7	327,4
1,743	-26,4	406,2
1,7435	18,0	479,0
1,744	66,0	537,2
1,7445	112,8	572,1
1,745	153,4	581,0
1,7455	184,3	566,1
1,746	203,8	530,8
1,7465	211,7	475,9
1,747	208,6	400,7
1,7475	195,1	306,6
1,748	170,8	199,7
1,7485	136,2	89,2
1,749	94,4	-17,3
1,7495	50,5	-116,8
1,75	9,4	-210,2
1,7505	-26,6	-298,5
1,751	-57,3	-381,3
1,7515	-83,7	-456,8
1,752	-107,3	-520,4
1,7525	-129,0	-565,3
1,753	-148,1	-585,7
1,7535	-162,1	-580,7
1,754	-168,3	-554,8
1,7545	-166,2	-512,5
1,755	-157,3	-454,1
1,7555	-143,1	-377,3
1,756	-124,5	-282,2
1,7565	-102,3	-174,8
1,757	-78,6	-64,2
1,7575	-55,4	41,4
1,758	-34,1	138,2
1,7585	-14,8	227,3
1,759	3,3	312,4
1,7595	21,3	395,6
1,76	40,6	474,1
1,7605	61,8	539,7
1,761	83,7	582,8
1,7615	103,1	598,0
1,762	117,4	586,9
1,7625	125,5	555,1
1,763	128,2	506,9
1,7635	126,5	442,3
1,764	120,7	358,8
1,7645	110,2	257,4
1,765	94,5	144,8
1,7655	73,6	30,5
1,766	48,2	-78,0
1,7665	20,0	-178,1
1,767	-9,4	-270,5
1,7675	-38,5	-355,7
1,768	-66,1	-433,2
1,7685	-91,6	-500,6
1,769	-114,8	-552,7
1,7695	-135,3	-583,1
1,77	-151,8	-588,4
1,7705	-162,5	-570,8
1,771	-166,2	-534,8
1,7715	-162,3	-482,7
1,772	-150,7	-413,3
1,7725	-131,3	-325,7
1,773	-104,6	-223,1
1,7735	-73,0	-113,4
1,774	-39,7	-5,4
1,7745	-8,3	94,7
1,775	19,6	185,2
1,7755	44,3	268,8
1,776	67,8	348,9
1,7765	91,2	426,3
1,777	114,6	495,9
1,7775	137,1	548,7
1,778	156,7	577,3
1,7785	171,3	580,0
1,779	179,4	560,7
1,7795	180,7	523,6
1,78	175,3	469,4
1,7805	160,0	395,8
1,781	125,7	303,2
1,7815	64,3	197,3
1,782	-21,2	87,2
1,7825	-114,7	-19,1
1,783	-196,4	-118,1
1,7835	-254,2	-210,3
1,784	-284,0	-296,6
1,7845	-288,1	-376,8
1,785	-272,3	-448,8
1,7855	-243,3	-507,6
1,786	-207,0	-546,2
1,7865	-169,1	-560,1
1,787	-135,1	-549,8
1,7875	-110,0	-519,8
1,788	-95,9	-473,4
1,7885	-90,5	-411,0
1,789	-88,1	-331,4
1,7895	-83,3	-236,5
1,79	-73,2	-133,2
1,7905	-56,4	-29,9
1,791	-33,6	67,1
1,7915	-6,3	156,3
1,792	23,3	239,3
1,7925	53,8	319,3
1,793	84,5	396,8
1,7935	115,3	468,0
1,794	144,9	525,2
1,7945	171,5	560,7
1,795	193,6	571,1
1,7955	210,1	558,8
1,796	220,7	527,5
1,7965	224,8	478,7
1,797	221,9	410,9
1,7975	211,0	323,2
1,798	191,1	219,4
1,7985	162,5	108,3
1,799	127,2	-1,1
1,7995	88,5	-103,6
1,8	49,6	-198,7
1,8005	12,2	-287,5
1,801	-23,1	-370,4
1,8015	-55,7	-445,8
1,802	-85,0	-509,8
1,8025	-110,1	-556,4
1,803	-129,9	-579,6
1,8035	-143,4	-578,1
1,804	-150,3	-555,3
1,8045	-150,7	-515,5
1,805	-145,3	-459,7
1,8055	-134,7	-385,6
1,806	-119,1	-293,1
1,8065	-98,7	-187,3
1,807	-74,0	-77,2
1,8075	-46,6	28,5
1,808	-18,3	125,5
1,8085	9,7	214,3
1,809	36,7	298,5
1,8095	63,0	380,4
1,81	89,1	458,1
1,8105	114,6	524,2
1,811	137,7	569,7
1,8115	155,8	589,3
1,812	166,3	583,7
1,8125	168,2	557,5
1,813	162,9	514,1
1,8135	152,5	453,0
1,814	138,1	372,5
1,8145	119,8	274,5
1,815	97,4	165,8
1,8155	71,8	55,5
1,816	44,0	-50,0
1,8165	15,3	-148,3
1,817	-13,3	-239,8
1,8175	-41,4	-325,2
1,818	-68,6	-403,8
1,8185	-94,3	-472,9
1,819	-117,8	-527,0
1,8195	-137,5	-559,2
1,82	-151,8	-566,0
1,8205	-159,7	-549,7
1,821	-161,3	-514,9
1,8215	-157,7	-464,1
1,822	-149,4	-396,1
1,8225	-136,3	-310,1
1,823	-117,8	-209,4
1,8235	-93,6	-101,8
1,824	-65,4	4,1
1,8245	-35,8	102,1
1,825	-7,2	190,6
1,8255	19,2	271,8
1,826	43,7	349,2
1,8265	67,1	423,8
1,827	89,8	491,3
1,8275	110,8	542,9
1,828	127,4	570,8
1,8285	135,0	573,0
1,829	127,6	553,0
1,8295	102,9	514,8
1,83	65,7	459,6
1,8305	25,6	386,1
1,831	-9,1	294,9
1,8315	-35,1	191,1
1,832	-52,4	82,8
1,8325	-62,3	-22,8
1,833	-66,9	-122,8
1,8335	-68,1	-216,8
1,834	-68,2	-304,7
1,8345	-69,1	-385,8
1,835	-71,9	-458,0
1,8355	-77,2	-517,2
1,836	-85,0	-556,9
1,8365	-93,9	-572,3
1,837	-102,2	-563,7
1,8375	-108,1	-535,4
1,838	-110,4	-491,2
1,8385	-108,1	-430,8
1,839	-100,5	-352,1
1,8395	-87,3	-257,0
1,84	-68,7	-152,1
1,8405	-46,0	-46,4
1,841	-21,1	53,0
1,8415	3,7	144,0
1,842	26,9	228,7
1,8425	48,8	310,8
1,843	71,1	391,3
1,8435	94,8	465,5
1,844	119,1	524,9
1,8445	141,1	561,3
1,845	157,9	571,6
1,8455	167,8	558,3
1,846	171,0	526,4
1,8465	168,6	478,5
1,847	161,1	413,3
1,8475	147,6	329,4
1,848	127,0	229,7
1,8485	99,5	121,8
1,849	66,5	14,3
1,8495	30,0	-87,8
1,85	-7,4	-183,6
1,8505	-43,1	-273,5
1,851	-75,4	-357,5
1,8515	-103,8	-434,5
1,852	-128,9	-500,6
1,8525	-150,6	-549,7
1,853	-168,2	-575,3
1,8535	-180,0	-575,3
1,854	-185,1	-552,7
1,8545	-183,9	-511,9
1,855	-178,4	-454,9
1,8555	-170,3	-381,0
1,856	-159,5	-290,7
1,8565	-144,8	-188,9
1,857	-125,4	-83,3
1,8575	-102,5	18,8
1,858	-77,8	113,9
1,8585	-52,6	202,5
1,859	-26,3	287,7
1,8595	1,5	371,7
1,86	30,6	452,2
1,8605	60,3	521,2
1,861	89,2	569,0
1,8615	115,1	589,8
1,862	135,4	584,8
1,8625	148,5	558,8
1,863	153,7	515,0
1,8635	151,0	452,5
1,864	141,3	369,8
1,8645	125,5	269,4
1,865	105,4	159,4
1,8655	83,1	49,3
1,866	60,4	-54,4
1,8665	38,0	-150,8
1,867	15,6	-241,5
1,8675	-7,3	-327,4
1,868	-30,6	-407,9
1,8685	-54,0	-480,2
1,869	-76,6	-538,2
1,8695	-96,9	-574,9
1,87	-114,8	-585,9
1,8705	-131,1	-573,0
1,871	-146,2	-540,6
1,8715	-158,8	-491,3
1,872	-165,9	-424,3
1,8725	-164,6	-338,6
1,873	-153,4	-237,6
1,8735	-132,6	-128,7
1,874	-104,8	-20,4
1,8745	-73,5	81,2
1,875	-41,5	174,2
1,8755	-9,9	260,4
1,876	21,4	343,1
1,8765	53,1	422,8
1,877	84,8	494,6
1,8775	115,3	549,6
1,878	141,8	580,1
1,8785	161,7	584,0
1,879	171,2	565,1
1,8795	163,8	528,1
1,88	133,3	474,5
1,8805	80,3	402,7
1,881	13,4	312,4
1,8815	-54,8	207,9
1,882	-113,1	97,5
1,8825	-153,2	-10,9
1,883	-171,3	-113,4
1,8835	-169,3	-209,4
1,884	-152,0	-299,1
1,8845	-125,4	-382,2
1,885	-95,2	-456,8
1,8855	-66,9	-518,6
1,886	-44,6	-561,5
1,8865	-30,0	-580,6
1,887	-22,7	-575,9
1,8875	-21,1	-551,2
1,888	-23,5	-509,8
1,8885	-27,8	-451,8
1,889	-31,4	-375,1
1,8895	-31,0	-280,5
1,89	-24,3	-174,3
1,8905	-11,0	-65,6
1,891	7,0	38,1
1,8915	27,1	133,3
1,892	46,9	221,4
1,8925	65,4	306,1
1,893	83,2	389,3
1,8935	102,1	467,5
1,894	122,9	531,8
1,8945	144,6	572,6
1,895	164,2	585,7
1,8955	179,1	574,0
1,896	188,0	543,2
1,8965	190,7	496,0
1,897	186,7	431,6
1,8975	175,3	348,4
1,898	156,0	249,7
1,8985	129,4	142,9
1,899	97,7	35,9
1,8995	63,1	-66,9
1,9	27,4	-164,7
1,9005	-8,1	-257,8
1,901	-42,3	-345,0
1,9015	-74,4	-424,4
1,902	-103,7	-492,1
1,9025	-129,2	-542,5
1,903	-150,0	-570,1
1,9035	-165,2	-572,9
1,904	-173,9	-554,3
1,9045	-176,4	-518,5
1,905	-173,2	-466,5
1,9055	-164,4	-396,3
1,906	-149,8	-307,4
1,9065	-129,0	-204,7
1,907	-103,2	-97,5
1,9075	-74,3	5,6
1,908	-44,3	100,4
1,9085	-14,4	187,9
1,909	14,8	271,8
1,9095	43,3	354,8
1,91	71,3	435,2
1,9105	98,5	505,5
1,911	123,3	556,0
1,9115	143,1	580,2
1,912	155,6	577,8
1,9125	158,9	553,0
1,913	153,3	509,4
1,9135	141,1	447,9
1,914	125,4	367,9
1,9145	108,3	271,4
1,915	89,4	164,9
1,9155	67,5	56,5
1,916	42,5	-47,6
1,9165	15,3	-145,6
1,917	-13,2	-237,7
1,9175	-45,6	-324,0
1,918	-87,3	-403,7
1,9185	-140,3	-474,3
1,919	-198,9	-530,9
1,9195	-251,6	-567,3
1,92	-288,1	-579,5
1,9205	-303,8	-568,6
1,921	-299,2	-538,9
1,9215	-278,0	-492,9
1,922	-244,7	-429,1
1,9225	-203,4	-345,5
1,923	-157,1	-245,0
1,9235	-108,7	-135,6
1,924	-61,4	-26,8
1,9245	-18,0	74,8
1,925	20,1	167,6
1,9255	53,1	254,0
1,926	81,8	337,3
1,9265	107,0	418,2
1,927	129,5	491,7
1,9275	149,5	549,2
1,928	166,3	582,9
1,9285	178,5	590,6
1,929	184,7	575,0
1,9295	184,4	540,3
1,93	178,0	487,7
1,9305	164,6	415,9
1,931	142,8	325,1
1,9315	113,3	220,4
1,932	79,4	110,3
1,9325	45,5	2,8
1,933	14,3	-98,4
1,9335	-14,2	-193,6
1,934	-41,2	-283,7
1,9345	-67,5	-368,4
1,935	-93,0	-445,3
1,9355	-117,5	-509,2
1,936	-140,9	-553,9
1,9365	-162,7	-574,7
1,937	-180,8	-571,6
1,9375	-192,7	-548,3
1,938	-196,8	-507,9
1,9385	-192,8	-450,2
1,939	-180,8	-373,1
1,9395	-160,3	-277,8
1,94	-131,9	-170,8
1,9405	-97,0	-61,7
1,941	-58,7	41,2
1,9415	-20,8	133,9
1,942	14,0	218,1
1,9425	44,6	298,1
1,943	71,5	376,8
1,9435	95,0	451,7
1,944	115,5	514,8
1,9445	132,3	557,0
1,945	144,6	573,0
1,9455	151,9	564,2
1,946	154,1	535,3
1,9465	151,2	489,2
1,947	143,3	425,3
1,9475	130,5	342,3
1,948	112,5	243,2
1,9485	89,6	135,4
1,949	62,8	27,7
1,9495	33,8	-74,7
1,95	5,3	-171,0
1,9505	-21,4	-261,8
1,951	-45,8	-347,1
1,9515	-67,4	-425,4
1,952	-85,8	-492,8
1,9525	-100,7	-543,2
1,953	-112,5	-570,1
1,9535	-121,8	-572,0
1,954	-128,4	-552,8
1,9545	-131,6	-517,4
1,955	-130,3	-466,8
1,9555	-123,5	-398,3
1,956	-110,1	-310,3
1,9565	-90,1	-207,2
1,957	-64,6	-97,8
1,9575	-35,8	8,5
1,958	-6,0	106,3
1,9585	22,3	195,3
1,959	47,7	278,5
1,9595	68,4	358,6
1,96	79,3	434,9
1,9605	74,3	501,6
1,961	53,3	550,0
1,9615	24,8	573,8
1,962	0,8	572,5
1,9625	-10,7	550,2
1,963	-7,3	511,0
1,9635	8,5	455,0
1,964	31,5	380,0
1,9645	55,8	286,5
1,965	76,6	180,2
1,9655	91,2	70,0
1,966	98,5	-36,3
1,9665	97,8	-135,6
1,967	88,6	-227,9
1,9675	69,9	-313,8
1,968	40,3	-393,0
1,9685	-1,6	-463,8
1,969	-53,9	-521,1
1,9695	-109,4	-558,4
1,97	-158,5	-571,3
1,9705	-193,7	-560,4
1,971	-212,7	-530,5
1,9715	-216,9	-484,5
1,972	-209,0	-421,6
1,9725	-191,6	-339,8
1,973	-166,4	-241,3
1,9735	-134,2	-132,9
1,974	-95,7	-23,7
1,9745	-52,6	79,4
1,975	-8,3	173,7
1,9755	33,6	260,7
1,976	71,2	343,6
1,9765	104,7	423,7
1,977	135,0	496,8
1,9775	161,8	554,0
1,978	183,4	586,9
1,9785	197,7	592,3
1,979	204,1	573,8
1,9795	203,9	536,7
1,98	198,1	483,6
1,9805	186,9	413,2
1,981	169,5	324,3
1,9815	145,3	220,7
1,982	115,3	110,3
1,9825	81,8	1,3
1,983	47,7	-102,7
1,9835	14,8	-201,4
1,984	-16,7	-294,9
1,9845	-47,4	-381,3
1,985	-77,2	-457,8
1,9855	-105,0	-520,3
1,986	-129,2	-563,3
1,9865	-148,1	-582,0
1,987	-160,9	-576,5
1,9875	-167,3	-551,1
1,988	-168,1	-510,1
1,9885	-163,7	-453,8
1,989	-154,0	-379,9
1,9895	-138,3	-288,9
1,99	-116,4	-186,3
1,9905	-89,4	-80,2
1,991	-59,8	22,2
1,9915	-30,3	117,6
1,992	-2,5	206,5
1,9925	23,4	291,8
1,993	48,1	374,8
1,9935	72,4	452,7
1,994	96,2	517,6
1,9945	117,8	561,0
1,995	135,1	578,6
1,9955	146,4	571,8
1,996	151,7	545,1
1,9965	151,6	501,0
1,997	146,0	438,7
1,9975	133,1	357,0
1,998	111,1	258,3
1,9985	80,9	149,7
1,999	46,0	40,0
1,9995	11,1	-64,8
2	-20,7	-162,8
2,0005	-48,7	-254,7
2,001	-73,2	-340,7
2,0015	-94,8	-419,8
2,002	-113,8	-488,7
2,0025	-130,0	-541,1
2,003	-142,7	-570,3
2,0035	-150,8	-573,1
2,004	-155,8	-552,8
2,0045	-162,5	-515,0
2,005	-174,9	-462,6
2,0055	-190,6	-394,2
2,006	-201,4	-308,3
2,0065	-198,8	-208,3
2,007	-179,2	-101,8
2,0075	-144,5	2,6
2,008	-99,0	99,4
2,0085	-47,3	187,7
2,009	6,7	270,2
2,0095	59,8	350,4
2,01	109,7	428,4
2,0105	154,2	498,2
2,011	191,1	550,3
2,0115	218,1	577,3
2,012	233,7	577,6
2,0125	237,9	554,2
2,013	232,2	511,3
2,0135	219,1	450,6
2,014	200,4	372,1
2,0145	177,1	277,3
2,015	149,4	171,8
2,0155	118,2	63,8
2,016	84,8	-40,4
2,0165	50,4	-138,3
2,017	15,8	-230,5
2,0175	-18,9	-317,7
2,018	-52,2	-399,0
2,0185	-82,1	-471,9
2,019	-107,5	-531,3
2,0195	-128,2	-570,6
2,02	-144,2	-584,9
2,0205	-155,0	-574,9
2,021	-160,5	-545,0
2,0215	-161,5	-498,6
2,022	-159,0	-435,2
2,0225	-154,2	-353,1
2,023	-147,4	-254,2
2,0235	-138,1	-145,9
2,024	-124,9	-37,4
2,0245	-106,7	64,4
2,025	-83,6	157,6
2,0255	-57,9	244,3
2,026	-31,8	327,9
2,0265	-6,5	409,3
2,027	18,8	483,8
2,0275	45,2	542,6
2,028	71,7	577,2
2,0285	95,5	584,8
2,029	113,9	568,6
2,0295	126,2	533,7
2,03	133,3	482,6
2,0305	135,4	414,0
2,031	131,9	327,0
2,0315	121,9	225,2
2,032	105,0	116,6
2,0325	82,3	9,1
2,033	55,8	-93,4
2,0335	27,7	-190,9
2,034	-0,5	-283,7
2,0345	-28,3	-370,6
2,035	-55,3	-448,9
2,0355	-80,9	-514,1
2,036	-103,7	-559,8
2,0365	-121,3	-580,4
2,037	-131,7	-575,5
2,0375	-134,4	-549,7
2,038	-130,9	-507,9
2,0385	-123,3	-451,3
2,039	-112,7	-377,4
2,0395	-98,2	-286,3
2,04	-79,1	-182,8
2,0405	-55,5	-75,3
2,041	-28,8	28,6
2,0415	-1,3	125,1
2,042	25,8	214,4
2,0425	51,0	299,3
2,043	73,5	381,6
2,0435	93,4	459,1
2,044	111,9	524,5
2,0445	129,7	568,8
2,045	145,4	586,8
2,0455	157,1	579,6
2,046	163,1	552,0
2,0465	163,2	506,8
2,047	155,8	443,3
2,0475	134,5	360,1
2,048	92,0	260,1
2,0485	28,8	151,0
2,049	-43,4	41,5
2,0495	-108,4	-62,8
2,05	-155,1	-160,7
2,0505	-179,9	-252,8
2,051	-184,9	-339,3
2,0515	-174,3	-418,8
2,052	-153,5	-488,3
2,0525	-127,4	-542,3
2,053	-100,4	-574,3
2,0535	-75,8	-581,3
2,054	-56,4	-565,9
2,0545	-44,2	-533,0
2,055	-39,7	-484,9
2,0555	-40,6	-420,2
2,056	-42,8	-336,6
2,0565	-42,0	-236,9
2,057	-36,0	-128,7
2,0575	-24,3	-21,6
2,058	-7,9	78,3
2,0585	11,5	169,6
2,059	32,7	255,3
2,0595	54,8	338,6
2,06	77,0	419,8
2,0605	98,0	492,7
2,061	116,8	547,8
2,0615	132,6	577,1
2,062	145,5	578,9
2,0625	154,8	557,7
2,063	158,1	518,4
2,0635	151,0	462,8
2,064	130,2	389,0
2,0645	96,0	297,0
2,065	53,5	191,9
2,0655	9,8	82,5
2,066	-29,8	-23,4
2,0665	-62,7	-122,6
2,067	-88,2	-215,3
2,0675	-106,8	-302,0
2,068	-119,8	-382,3
2,0685	-128,8	-454,3
2,069	-135,2	-513,6
2,0695	-139,7	-553,8
2,07	-142,0	-570,2
2,0705	-141,1	-563,3
2,071	-136,1	-537,8
2,0715	-127,3	-497,4
2,072	-115,5	-440,7
2,0725	-100,8	-364,5
2,073	-82,5	-269,5
2,0735	-60,1	-162,9
2,074	-34,2	-54,5
2,0745	-6,7	48,2
2,075	20,8	142,2
2,0755	47,3	229,4
2,076	72,8	313,3
2,0765	97,7	395,2
2,077	122,4	471,3
2,0775	146,5	532,5
2,078	168,2	569,9
2,0785	185,0	579,9
2,079	195,3	565,5
2,0795	199,0	531,9
2,08	196,8	481,9
2,0805	189,1	414,3
2,081	175,4	327,8
2,0815	155,1	226,0
2,082	128,3	116,5
2,0825	96,9	8,0
2,083	63,0	-94,8
2,0835	28,8	-191,3
2,084	-4,5	-282,1
2,0845	-36,2	-367,1
2,085	-65,9	-444,3
2,0855	-93,2	-510,0
2,086	-117,7	-557,8
2,0865	-138,2	-581,6
2,087	-153,2	-579,6
2,0875	-162,5	-555,5
2,088	-167,1	-514,3
2,0885	-167,9	-457,4
2,089	-164,8	-383,4
2,0895	-156,0	-291,8
2,09	-140,9	-187,1
2,0905	-120,3	-78,2
2,091	-95,6	26,9
2,0915	-68,4	123,8
2,092	-39,4	213,1
2,0925	-9,3	298,1
2,093	21,5	381,1
2,0935	53,1	460,1
2,094	84,4	527,5
2,0945	113,5	573,7
2,095	137,8	593,3
2,0955	155,2	587,4
2,096	165,3	561,2
2,0965	168,5	518,5
2,097	165,5	459,1
2,0975	156,5	380,6
2,098	141,4	284,0
2,0985	120,8	175,1
2,099	96,3	62,1
2,0995	70,3	-47,9
2,1	43,6	-151,0
2,1005	15,8	-246,4
2,101	-13,6	-334,3
2,1015	-44,1	-414,8
2,102	-73,8	-486,3
2,1025	-100,0	-543,2
2,103	-120,7	-578,7
2,1035	-134,4	-588,2
2,104	-141,4	-573,5
2,1045	-142,9	-539,6
2,105	-140,4	-489,8
2,1055	-134,3	-423,7
2,106	-123,7	-339,6
2,1065	-107,2	-240,2
2,107	-84,8	-132,7
2,1075	-58,2	-25,8
2,108	-29,6	74,3
2,1085	-1,2	166,0
2,109	25,8	252,0
2,1095	49,8	335,4
2,11	67,5	416,6
2,1105	74,8	489,8
2,111	70,0	545,7
2,1115	56,1	576,5
2,112	39,3	580,5
2,1125	25,9	561,6
2,113	20,1	524,7
2,1135	22,8	470,9
2,114	31,7	398,3
2,1145	43,2	306,8
2,115	53,5	201,5
2,1155	59,7	91,0
2,116	60,2	-16,4
2,1165	54,3	-116,8
2,117	41,8	-210,3
2,1175	22,7	-297,6
2,118	-2,7	-378,8
2,1185	-33,6	-452,0
2,119	-68,4	-512,3
2,1195	-103,6	-553,3
2,12	-134,8	-569,9
2,1205	-158,1	-562,1
2,121	-172,3	-534,1
2,1215	-178,7	-489,4
2,122	-178,4	-428,2
2,1225	-171,3	-348,7
2,123	-155,6	-252,2
2,1235	-130,7	-145,5
2,124	-98,3	-37,8
2,1245	-61,7	63,2
2,125	-24,4	154,3
2,1255	11,1	237,1
2,126	44,4	315,8
2,1265	75,8	392,7
2,127	105,8	464,8
2,1275	133,4	523,7
2,128	156,7	560,3
2,1285	173,4	571,0
2,129	182,3	558,6
2,1295	184,1	527,9
2,13	181,5	481,3
2,1305	176,1	417,3
2,131	166,8	334,0
2,1315	151,0	234,2
2,132	127,0	125,3
2,1325	96,3	15,9
2,133	62,0	-88,6
2,1335	27,0	-186,5
2,134	-7,5	-278,0
2,1345	-41,5	-362,9
2,135	-75,7	-440,3
2,1355	-109,8	-506,8
2,136	-142,3	-556,6
2,1365	-169,9	-583,5
2,137	-189,0	-585,1
2,1375	-197,9	-564,3
2,138	-197,5	-525,2
2,1385	-190,3	-469,5
2,139	-178,5	-395,5
2,1395	-162,3	-303,3
2,14	-140,2	-197,5
2,1405	-111,3	-86,9
2,141	-77,4	19,8
2,1415	-42,2	117,9
2,142	-9,2	207,0
2,1425	20,1	290,1
2,143	47,3	370,7
2,1435	74,6	448,0
2,144	102,6	515,4
2,1445	130,3	563,2
2,145	154,7	584,8
2,1455	172,8	580,1
2,146	183,3	553,9
2,1465	186,2	510,4
2,147	182,5	449,3
2,1475	173,0	368,8
2,148	157,3	270,8
2,1485	135,5	162,3
2,149	108,7	52,5
2,1495	79,0	-52,5
2,15	46,8	-150,9
2,1505	7,0	-243,6
2,151	-47,0	-331,0
2,1515	-115,3	-413,0
2,152	-188,4	-486,8
2,1525	-251,9	-546,0
2,153	-294,9	-582,8
2,1535	-312,3	-592,7
2,154	-304,0	-577,7
2,1545	-273,7	-543,0
2,155	-227,4	-492,2
2,1555	-171,5	-425,0
2,156	-111,6	-339,9
2,1565	-52,2	-239,6
2,157	2,9	-131,5
2,1575	50,9	-24,2
2,158	89,9	76,4
2,1585	119,5	168,7
2,159	140,8	255,2
2,1595	156,2	339,1
2,16	168,3	420,7
2,1605	179,1	494,5
2,161	188,8	550,8
2,1615	196,3	581,9
2,162	199,0	586,1
2,1625	193,8	567,6
2,163	178,6	531,6
2,1635	154,7	479,3
2,164	126,3	408,6
2,1645	97,9	318,3
2,165	72,3	212,3
2,1655	49,9	99,5
2,166	30,0	-11,6
2,1665	11,5	-116,3
2,167	-6,5	-213,8
2,1675	-24,5	-304,6
2,168	-43,0	-388,4
2,1685	-62,7	-463,6
2,169	-84,4	-526,2
2,1695	-107,4	-569,8
2,17	-128,6	-589,1
2,1705	-144,3	-583,5
2,171	-152,9	-557,4
2,1715	-154,6	-514,9
2,172	-150,4	-456,1
2,1725	-140,8	-379,0
2,173	-125,5	-284,2
2,1735	-104,5	-177,6
2,174	-78,5	-68,0
2,1745	-49,2	37,2
2,175	-18,8	134,3
2,1755	10,6	224,0
2,176	38,0	309,3
2,1765	64,2	392,0
2,177	90,3	469,3
2,1775	116,6	533,0
2,178	141,3	574,2
2,1785	161,2	588,7
2,179	174,0	578,4
2,1795	178,8	548,5
2,18	176,0	501,8
2,1805	166,3	437,5
2,181	149,9	354,1
2,1815	127,4	254,3
2,182	100,2	145,6
2,1825	70,1	36,3
2,183	39,5	-67,8
2,1835	9,8	-165,6
2,184	-18,5	-257,8
2,1845	-45,6	-344,3
2,185	-72,1	-423,7
2,1855	-97,8	-492,2
2,186	-121,9	-543,7
2,1865	-142,7	-572,1
2,187	-158,0	-575,2
2,1875	-165,9	-556,0
2,188	-166,4	-519,5
2,1885	-160,7	-467,2
2,189	-150,1	-397,3
2,1895	-134,9	-309,5
2,19	-114,7	-208,0
2,1905	-89,9	-101,3
2,191	-62,2	2,8
2,1915	-33,4	100,2
2,192	-4,8	190,8
2,1925	23,6	277,6
2,193	51,4	362,6
2,1935	78,2	443,8
2,194	103,1	514,2
2,1945	124,9	564,2
2,195	142,5	587,7
2,1955	154,5	584,5
2,196	160,5	559,0
2,1965	161,1	515,0
2,197	156,6	452,9
2,1975	146,6	371,3
2,198	130,7	271,8
2,1985	108,6	161,4
2,199	80,8	49,7
2,1995	48,2	-56,3
2,2	12,8	-154,2
2,2005	-23,0	-245,1
2,201	-57,0	-330,1
2,2015	-88,3	-409,3
2,202	-116,8	-480,3
2,2025	-142,2	-537,5
2,203	-162,9	-573,7
2,2035	-176,7	-584,5
2,204	-181,5	-571,0
2,2045	-177,3	-538,0
2,205	-167,4	-488,9
2,2055	-158,0	-423,2
2,206	-154,5	-339,6
2,2065	-157,0	-240,8
2,207	-160,3	-134,4
2,2075	-157,6	-28,8
2,208	-144,7	70,0
2,2085	-120,2	160,9
2,209	-84,9	246,5
2,2095	-40,8	330,8
2,21	8,7	414,1
2,2105	59,3	491,1
2,211	106,7	551,4
2,2115	147,3	586,3
2,212	178,7	592,7
2,2125	199,1	574,5
2,213	207,0	537,2
2,2135	202,4	483,4
2,214	187,0	412,1
2,2145	163,3	322,5
2,215	134,2	218,3
2,2155	102,3	107,7
2,216	70,1	-1,5
2,2165	38,9	-104,8
2,217	9,3	-201,7
2,2175	-19,0	-292,9
2,218	-46,0	-378,7
2,2185	-72,0	-457,2
2,219	-96,6	-523,3
2,2195	-117,9	-570,0
2,22	-133,6	-591,7
2,2205	-142,5	-588,2
2,221	-144,8	-563,7
2,2215	-141,7	-522,1
2,222	-133,5	-463,8
2,2225	-120,6	-387,0
2,223	-102,9	-292,5
2,2235	-81,4	-186,1
2,224	-57,1	-76,8
2,2245	-31,6	27,6
2,225	-5,9	123,7
2,2255	20,0	212,3
2,226	46,3	296,7
2,2265	73,7	379,2
2,227	102,7	457,1
2,2275	132,6	522,5
2,228	160,6	566,1
2,2285	182,8	582,5
2,229	195,8	573,1
2,2295	198,7	542,4
2,23	193,2	494,3
2,2305	181,3	428,8
2,231	163,9	344,8
2,2315	138,7	245,4
2,232	98,6	137,8
2,2325	38,4	30,3
2,233	-37,7	-71,9
2,2335	-116,2	-168,0
2,234	-182,3	-258,7
2,2345	-227,4	-343,9
2,235	-249,9	-422,1
2,2355	-252,6	-489,8
2,236	-240,2	-541,0
2,2365	-216,5	-569,7
2,237	-184,6	-573,4
2,2375	-148,1	-554,8
2,238	-111,2	-518,5
2,2385	-77,8	-466,5
2,239	-49,9	-397,4
2,2395	-27,2	-310,5
2,24	-8,1	-210,0
2,2405	8,7	-103,7
2,241	24,7	0,4
2,2415	40,9	97,2
2,242	58,7	186,3
2,2425	78,0	270,8
2,243	97,9	353,8
2,2435	117,4	434,4
2,244	135,2	506,4
2,2445	150,1	560,0
2,245	160,5	588,1
2,2455	165,7	589,4
2,246	166,9	567,9
2,2465	165,9	527,6
2,247	163,0	469,2
2,2475	156,0	391,2
2,248	142,9	295,0
2,2485	123,1	187,2
2,249	98,0	76,9
2,2495	69,4	-29,3
2,25	39,2	-129,1
2,2505	8,9	-223,1
2,251	-20,5	-311,7
2,2515	-47,9	-394,0
2,252	-73,1	-467,5
2,2525	-96,3	-527,1
2,253	-118,1	-566,4
2,2535	-138,0	-581,2
2,254	-154,0	-572,5
2,2545	-164,2	-545,0
2,255	-167,3	-501,3
2,2555	-163,3	-440,2
2,256	-152,1	-359,4
2,2565	-133,2	-260,8
2,257	-107,6	-152,0
2,2575	-77,5	-42,6
2,258	-45,9	60,3
2,2585	-14,8	154,4
2,259	15,1	241,6
2,2595	44,1	325,5
2,26	72,4	407,5
2,2605	99,5	483,3
2,261	124,5	543,5
2,2615	145,8	579,4
2,262	161,6	588,0
2,2625	170,9	572,5
2,263	173,7	538,1
2,2635	170,7	487,3
2,264	162,4	418,8
2,2645	148,5	331,6
2,265	129,0	229,5
2,2655	104,3	120,4
2,266	75,7	12,5
2,2665	44,9	-89,9
2,267	13,4	-186,5
2,2675	-17,9	-278,2
2,268	-48,1	-364,3
2,2685	-76,4	-442,3
2,269	-101,8	-507,8
2,2695	-123,6	-554,3
2,27	-140,5	-576,3
2,2705	-151,7	-573,0
2,271	-156,9	-548,8
2,2715	-156,8	-508,0
2,272	-151,6	-451,6
2,2725	-141,4	-378,0
2,273	-126,0	-287,9
2,2735	-105,1	-186,2
2,274	-80,9	-80,5
2,2745	-57,7	22,1
2,275	-39,3	118,0
2,2755	-25,6	207,3
2,276	-12,7	292,9
2,2765	3,5	376,7
2,277	24,6	456,2
2,2775	50,2	523,5
2,278	78,2	569,4
2,2785	105,3	588,7
2,279	128,5	582,8
2,2795	146,7	556,8
2,28	159,4	513,4
2,2805	165,6	451,8
2,281	163,1	369,7
2,2815	150,5	269,4
2,282	128,3	158,3
2,2825	99,0	46,0
2,283	66,4	-60,9
2,2835	33,5	-160,5
2,284	1,9	-253,5
2,2845	-27,8	-340,3
2,285	-55,4	-419,8
2,2855	-80,4	-488,6
2,286	-102,1	-540,6
2,2865	-119,3	-569,8
2,287	-131,6	-573,9
2,2875	-138,9	-556,4
2,288	-142,3	-522,3
2,2885	-142,6	-473,3
2,289	-139,4	-407,5
2,2895	-131,3	-323,3
2,29	-117,3	-224,7
2,2905	-98,8	-120,1
2,291	-78,8	-18,1
2,2915	-59,1	76,7
2,292	-39,4	164,5
2,2925	-19,0	248,5
2,293	1,6	331,7
2,2935	21,4	412,8
2,294	40,0	485,1
2,2945	57,4	538,4
2,295	73,5	565,9
2,2955	87,7	567,1
2,296	98,9	546,6
2,2965	106,7	508,7
2,297	111,0	454,0
2,2975	110,7	380,5
2,298	103,8	288,7
2,2985	89,2	184,0
2,299	68,1	75,1
2,2995	43,4	-30,3
2,3	17,4	-129,0
2,3005	-8,2	-221,5
2,301	-32,8	-308,3
2,3015	-56,3	-389,1
2,302	-78,5	-461,7
2,3025	-98,8	-521,1
2,303	-116,3	-560,6
2,3035	-129,8	-575,0
2,304	-138,4	-565,0
2,3045	-141,7	-535,3
2,305	-139,8	-489,9
2,3055	-133,1	-428,8
2,306	-121,6	-350,4
2,3065	-104,6	-255,8
2,307	-81,9	-151,2
2,3075	-54,7	-45,1
2,308	-25,3	55,5
2,3085	3,9	148,0
2,309	31,8	233,6
2,3095	58,4	315,5
2,31	83,8	394,9
2,3105	107,8	468,1
2,311	130,3	526,7
2,3115	149,9	562,8
2,312	165,1	573,0
2,3125	174,6	559,9
2,313	178,1	528,1
2,3135	175,9	479,4
2,314	168,4	412,2
2,3145	155,3	325,4
2,315	136,3	222,9
2,3155	111,8	112,8
2,316	83,4	3,7
2,3165	52,7	-99,4
2,317	21,3	-195,7
2,3175	-9,9	-286,0
2,318	-40,6	-370,6
2,3185	-70,2	-448,0
2,319	-98,4	-513,9
2,3195	-126,6	-561,5
2,32	-158,1	-584,8
2,3205	-193,6	-582,3
2,321	-228,7	-558,2
2,3215	-255,4	-517,1
2,322	-267,3	-460,1
2,3225	-262,2	-385,5
2,323	-241,2	-293,1
2,3235	-207,1	-188,3
2,324	-163,3	-79,7
2,3245	-113,5	24,4
2,325	-61,4	119,9
2,3255	-10,4	207,7
2,326	37,3	291,1
2,3265	80,6	372,7
2,327	119,0	450,7
2,3275	152,1	517,6
2,328	178,9	564,4
2,3285	197,8	585,3
2,329	207,9	581,1
2,3295	209,8	556,0
2,33	205,1	513,2
2,3305	195,3	452,5
2,331	180,5	372,3
2,3315	160,7	274,7
2,332	135,3	166,8
2,3325	104,3	57,2
2,333	68,3	-47,8
2,3335	29,7	-146,5
2,334	-7,8	-240,1
2,3345	-41,5	-329,3
2,335	-70,1	-412,8
2,3355	-94,6	-486,3
2,336	-115,7	-543,1
2,3365	-133,4	-576,1
2,337	-146,8	-582,2
2,3375	-154,6	-564,8
2,338	-156,2	-529,5
2,3385	-152,0	-479,3
2,339	-142,5	-413,2
2,3395	-127,9	-329,0
2,34	-108,0	-228,9
2,3405	-83,3	-120,1
2,341	-55,6	-11,3
2,3415	-26,8	91,0
2,342	1,2	184,6
2,3425	27,8	271,6
2,343	52,7	355,1
2,3435	76,1	435,5
2,344	98,2	507,7
2,3445	118,4	562,3
2,345	134,8	591,9
2,3455	145,3	594,9
2,346	148,8	575,3
2,3465	146,1	537,4
2,347	138,6	482,2
2,3475	127,3	407,8
2,348	112,1	314,4
2,3485	93,1	207,3
2,349	70,9	95,4
2,3495	46,1	-13,9
2,35	19,2	-117,2
2,3505	-9,4	-214,0
2,351	-39,0	-304,3
2,3515	-68,0	-387,7
2,352	-95,3	-462,4
2,3525	-119,7	-523,8
2,353	-140,6	-565,3
2,3535	-156,8	-581,9
2,354	-167,2	-574,3
2,3545	-170,9	-547,1
2,355	-168,2	-504,2
2,3555	-159,3	-444,8
2,356	-145,0	-366,4
2,3565	-125,3	-270,0
2,357	-100,3	-162,3
2,3575	-70,8	-52,4
2,358	-38,8	51,9
2,3585	-6,8	147,2
2,359	23,1	234,4
2,3595	49,8	316,8
2,36	74,1	396,5
2,3605	96,7	470,6
2,361	118,3	530,8
2,3615	137,8	568,4
2,362	153,7	579,7
2,3625	163,2	567,3
2,363	159,8	536,1
2,3635	135,6	488,4
2,364	88,2	423,0
2,3645	25,0	338,9
2,365	-40,1	239,8
2,3655	-95,1	133,5
2,366	-133,3	27,2
2,3665	-152,5	-74,8
2,367	-154,4	-171,6
2,3675	-142,9	-263,2
2,368	-123,2	-348,3
2,3685	-100,5	-425,3
2,369	-80,1	-490,4
2,3695	-65,5	-537,7
2,37	-57,9	-561,4
2,3705	-56,5	-560,5
2,371	-59,3	-538,7
2,3715	-64,3	-500,9
2,372	-69,8	-448,5
2,3725	-73,4	-379,3
2,373	-73,0	-292,3
2,3735	-67,0	-192,5
2,374	-55,3	-88,7
2,3745	-39,3	10,1
2,375	-21,6	99,8
2,3755	-4,3	182,3
2,376	11,8	262,6
2,3765	27,6	344,5
2,377	45,0	425,8
2,3775	65,5	497,3
2,378	88,7	548,1
2,3785	112,0	571,3
2,379	131,6	567,4
2,3795	145,1	541,8
2,38	152,4	498,7
2,3805	154,3	438,2
2,381	150,1	358,7
2,3815	137,2	261,8
2,382	113,4	154,1
2,3825	79,7	44,6
2,383	40,5	-59,9
2,3835	1,0	-157,3
2,384	-35,7	-248,0
2,3845	-68,6	-332,9
2,385	-97,3	-411,8
2,3855	-122,8	-481,8
2,386	-146,2	-537,3
2,3865	-168,1	-571,5
2,387	-186,7	-580,4
2,3875	-198,5	-566,0
2,388	-201,3	-533,0
2,3885	-195,2	-484,0
2,389	-181,1	-417,8
2,3895	-160,1	-332,6
2,39	-134,8	-231,8
2,3905	-109,4	-123,5
2,391	-86,8	-16,9
2,3915	-66,5	82,1
2,392	-45,0	172,3
2,3925	-19,5	256,7
2,393	10,6	339,0
2,3935	44,4	419,8
2,394	80,3	493,2
2,3945	116,2	549,4
2,395	149,3	580,1
2,3955	176,6	583,1
2,396	196,3	562,6
2,3965	208,1	523,7
2,397	212,3	468,2
2,3975	209,1	394,9
2,398	198,3	303,7
2,3985	179,1	199,2
2,399	151,8	89,6
2,3995	118,2	-17,8
2,4	81,2	-118,9
2,4005	43,5	-213,5
2,401	7,4	-302,0
2,4015	-25,8	-384,4
2,402	-55,4	-459,2
2,4025	-81,6	-521,6
2,403	-105,1	-565,1
2,4035	-126,1	-584,2
2,404	-143,3	-578,7
2,4045	-154,8	-552,4
2,405	-158,8	-509,2
2,4055	-154,8	-449,2
2,406	-143,2	-370,8
2,4065	-124,5	-275,3
2,407	-100,1	-169,3
2,4075	-71,7	-62,0
2,408	-41,7	39,3
2,4085	-12,5	131,8
2,409	14,7	217,8
2,4095	39,8	301,0
2,41	63,6	383,3
2,4105	87,1	461,0
2,411	109,9	525,0
2,4115	130,5	565,9
2,412	146,5	579,5
2,4125	155,8	568,2
2,413	157,2	537,2
2,4135	149,6	489,6
2,414	130,2	424,3
2,4145	97,1	339,9
2,415	52,7	239,4
2,4155	3,6	130,6
2,416	-42,8	22,1
2,4165	-81,9	-80,7
2,417	-112,0	-176,8
2,4175	-132,5	-266,8
2,418	-144,0	-351,2
2,4185	-148,1	-428,6
2,419	-147,3	-495,3
2,4195	-144,3	-545,0
2,42	-140,6	-571,3
2,4205	-135,8	-571,9
2,421	-128,6	-550,4
2,4215	-118,7	-511,6
2,422	-106,6	-457,1
2,4225	-93,0	-385,1
2,423	-77,6	-295,0
2,4235	-59,3	-191,1
2,424	-36,7	-81,6
2,4245	-9,7	24,9
2,425	20,0	123,6
2,4255	48,9	214,0
2,426	73,8	298,8
2,4265	92,8	380,3
2,427	106,6	456,6
2,4275	118,0	520,7
2,428	129,8	564,3
2,4285	142,8	582,4
2,429	155,4	576,5
2,4295	164,5	551,7
2,43	167,7	511,3
2,4305	164,5	454,5
2,431	155,0	378,8
2,4315	139,6	284,8
2,432	118,9	178,6
2,4325	93,8	69,1
2,433	65,9	-36,5
2,4335	36,4	-136,1
2,434	6,4	-230,6
2,4345	-23,5	-320,4
2,435	-52,6	-404,6
2,4355	-79,9	-479,8
2,436	-104,5	-540,3
2,4365	-125,4	-579,0
2,437	-141,6	-591,3
2,4375	-152,1	-578,4
2,438	-156,4	-545,3
2,4385	-155,0	-495,4
2,439	-148,0	-428,5
2,4395	-135,5	-343,3
2,44	-117,3	-242,4
2,4405	-94,0	-133,5
2,441	-67,5	-25,1
2,4415	-40,1	76,5
2,442	-13,5	170,0
2,4425	11,9	257,5
2,443	36,1	341,6
2,4435	58,3	422,3
2,444	77,6	494,7
2,4445	92,9	550,5
2,445	104,7	582,4
2,4455	113,3	588,3
2,446	118,9	571,2
2,4465	121,2	535,5
2,447	120,1	482,7
2,4475	115,2	411,2
2,448	105,9	320,8
2,4485	91,4	216,0
2,449	71,3	105,3
2,4495	46,3	-3,5
2,45	17,7	-106,3
2,4505	-13,0	-202,6
2,451	-44,2	-293,0
2,4515	-74,7	-377,3
2,452	-103,1	-454,0
2,4525	-128,7	-519,1
2,453	-150,4	-565,7
2,4535	-166,8	-587,8
2,454	-176,3	-584,7
2,4545	-179,3	-560,7
2,455	-177,0	-519,7
2,4555	-170,5	-461,9
2,456	-161,0	-384,9
2,4565	-148,3	-289,6
2,457	-131,5	-182,7
2,4575	-110,1	-73,5
2,458	-84,3	30,3
2,4585	-55,7	125,5
2,459	-25,6	213,4
2,4595	5,0	297,6
2,46	35,5	380,1
2,4605	65,8	457,9
2,461	95,5	522,7
2,4615	122,6	565,4
2,462	144,1	581,3
2,4625	157,8	572,3
2,463	163,3	543,5
2,4635	162,5	497,8
2,464	156,8	434,6
2,4645	146,8	352,3
2,465	131,7	253,5
2,4655	110,7	145,5
2,466	84,5	36,9
2,4665	55,4	-66,8
2,467	25,4	-163,8
2,4675	-3,9	-254,7
2,468	-32,2	-339,6
2,4685	-59,5	-417,6
2,469	-85,6	-485,4
2,4695	-109,6	-537,1
2,47	-129,8	-566,2
2,4705	-144,3	-570,6
2,471	-152,6	-553,3
2,4715	-155,0	-519,4
2,472	-152,3	-470,4
2,4725	-144,8	-403,7
2,473	-132,3	-317,5
2,4735	-117,7	-215,4
2,474	-110,0	-106,1
2,4745	-117,5	1,0
2,475	-138,9	100,4
2,4755	-162,2	191,3
2,476	-172,9	276,8
2,4765	-162,3	360,1
2,477	-128,7	440,6
2,4775	-76,2	511,2
2,478	-12,2	561,8
2,4785	55,3	585,4
2,479	118,8	581,6
2,4795	172,7	555,3
2,48	212,7	511,1
2,4805	235,8	449,7
2,481	240,6	369,6
2,4815	227,8	272,4
2,482	200,3	164,8
2,4825	162,3	55,6
2,483	118,5	-48,8
2,4835	73,1	-146,7
2,484	29,3	-238,9
2,4845	-11,0	-325,9
2,485	-47,7	-406,7
2,4855	-80,9	-478,4
2,486	-110,3	-535,8
2,4865	-135,3	-571,8
2,487	-154,3	-582,4
2,4875	-165,9	-569,0
2,488	-169,0	-537,1
2,4885	-164,3	-490,3
2,489	-154,2	-427,9
2,4895	-142,5	-347,5
2,49	-131,2	-250,5
2,4905	-119,4	-143,6
2,491	-104,2	-36,0
2,4915	-83,8	65,4
2,492	-58,9	158,3
2,4925	-31,5	244,3
2,493	-2,4	326,8
2,4935	28,3	407,1
2,494	60,9	481,2
2,4945	94,8	540,2
2,495	127,8	575,5
2,4955	156,5	584,0
2,496	178,0	568,9
2,4965	190,5	535,1
2,497	192,9	484,3
2,4975	184,9	414,8
2,498	167,2	325,8
2,4985	141,7	221,8
2,499	110,8	111,3
2,4995	77,4	2,8
2,5	44,0	-99,4
2,5005	12,3	-195,1
2,501	-17,2	-285,0
2,5015	-44,9	-368,8
2,502	-71,9	-445,2
2,5025	-99,5	-510,2
2,503	-127,9	-557,3
2,5035	-154,7	-580,2
2,504	-175,7	-577,1
2,5045	-187,5	-551,8
2,505	-189,3	-508,5
2,5055	-182,3	-448,8
2,506	-167,9	-371,0
2,5065	-147,0	-275,8
2,507	-120,3	-169,2
2,5075	-89,5	-60,2
2,508	-56,6	43,4
2,5085	-23,1	138,5
2,509	10,3	226,4
2,5095	42,9	310,6
2,51	74,1	393,0
2,5105	103,4	470,6
2,511	130,3	534,7
2,5115	153,5	575,4
2,512	171,3	588,3
2,5125	182,7	575,7
2,513	187,5	543,7
2,5135	186,2	496,0
2,514	179,1	431,9
2,5145	166,3	349,8
2,515	147,1	251,6
2,5155	121,6	143,8
2,516	91,0	34,5
2,5165	56,9	-71,1
2,517	21,4	-171,2
2,5175	-13,9	-266,1
2,518	-47,6	-355,3
2,5185	-79,1	-437,0
2,519	-107,8	-507,7
2,5195	-133,2	-561,5
2,52	-154,5	-592,2
2,5205	-170,3	-597,3
2,521	-180,0	-579,5
2,5215	-187,1	-543,7
2,522	-197,1	-491,7
2,5225	-212,7	-421,9
2,523	-230,5	-333,3
2,5235	-243,2	-229,8
2,524	-244,0	-119,7
2,5245	-229,3	-11,9
2,525	-199,3	88,3
2,5255	-156,8	180,2
2,526	-105,8	266,4
2,5265	-50,2	350,0
2,527	6,9	430,3
2,5275	62,1	501,1
2,528	112,0	552,9
2,5285	153,1	579,1
2,529	182,8	579,0
2,5295	200,7	557,2
2,53	207,0	518,0
2,5305	202,8	462,1
2,531	189,1	387,2
2,5315	167,4	293,6
2,532	140,3	186,9
2,5325	110,7	76,6
2,533	80,7	-29,8
2,5335	50,8	-129,3
2,534	20,6	-222,4
2,5345	-10,8	-309,7
2,535	-42,7	-390,8
2,5355	-72,6	-463,7
2,536	-97,5	-523,1
2,5365	-114,9	-562,1
2,537	-125,2	-576,0
2,5375	-130,4	-566,1
2,538	-132,4	-537,2
2,5385	-132,3	-492,4
2,539	-130,2	-430,5
2,5395	-126,4	-348,8
2,54	-122,6	-249,2
2,5405	-120,2	-139,2
2,541	-118,4	-28,8
2,5415	-114,5	74,3
2,542	-105,0	167,4
2,5425	-88,1	252,6
2,543	-63,4	333,8
2,5435	-31,9	412,7
2,544	4,5	485,4
2,5445	43,0	543,3
2,545	80,4	577,7
2,5455	113,3	585,6
2,546	139,9	570,2
2,5465	159,3	536,3
2,547	171,8	485,5
2,5475	177,0	415,8
2,548	174,0	326,2
2,5485	161,9	221,3
2,549	140,7	110,7
2,5495	112,6	3,3
2,55	80,1	-96,8
2,5505	45,2	-190,1
2,551	7,8	-278,5
2,5515	-36,0	-362,1
2,552	-92,5	-439,6
2,5525	-162,6	-506,3
2,553	-236,6	-554,4
2,5535	-298,4	-576,7
2,554	-335,3	-571,8
2,5545	-343,2	-544,8
2,555	-324,3	-501,7
2,5555	-284,7	-444,7
2,556	-230,6	-371,7
2,5565	-166,8	-282,0
2,557	-97,5	-179,7
2,5575	-27,0	-72,5
2,558	39,5	31,8
2,5585	97,7	128,6
2,559	144,8	217,6
2,5595	179,6	300,9
2,56	203,1	380,9
2,5605	217,3	455,8
2,561	225,1	518,9
2,5615	228,9	561,8
2,562	229,5	579,2
2,5625	226,9	572,2
2,563	220,7	545,3
2,5635	210,3	502,1
2,564	194,7	441,8
2,5645	172,0	362,5
2,565	140,9	265,8
2,5655	103,2	158,4
2,566	64,0	48,8
2,5665	28,0	-57,0
2,567	-3,0	-158,0
2,5675	-30,3	-254,6
2,568	-55,6	-346,3
2,5685	-79,5	-430,4
2,569	-101,4	-502,4
2,5695	-120,9	-555,9
2,57	-138,7	-585,3
2,5705	-157,0	-588,5
2,571	-176,8	-569,1
2,5715	-195,8	-532,4
2,572	-208,4	-480,8
2,5725	-210,5	-412,4
2,573	-200,4	-325,9
2,5735	-178,8	-224,3
2,574	-147,0	-115,5
2,5745	-107,5	-8,0
2,575	-63,2	92,6
2,5755	-17,6	185,2
2,576	26,1	272,1
2,5765	65,9	356,0
2,577	101,3	436,9
2,5775	132,4	509,0
2,578	158,8	562,7
2,5785	179,4	590,3
2,579	193,1	590,4
2,5795	199,2	567,3
2,58	198,3	525,8
2,5805	191,8	467,9
2,581	180,3	392,4
2,5815	163,9	299,5
2,582	142,3	194,0
2,5825	115,6	83,9
2,583	84,8	-23,5
2,5835	51,0	-125,5
2,584	15,7	-221,9
2,5845	-19,3	-312,9
2,585	-52,3	-397,1
2,5855	-81,8	-472,2
2,586	-107,5	-533,3
2,5865	-129,5	-574,2
2,587	-147,9	-589,9
2,5875	-161,9	-581,0
2,588	-170,2	-551,9
2,5885	-171,4	-506,0
2,589	-165,3	-443,2
2,5895	-152,2	-361,6
2,59	-132,7	-263,0
2,5905	-107,6	-154,4
2,591	-78,3	-45,3
2,5915	-46,3	57,4
2,592	-13,8	151,1
2,5925	15,0	237,3
2,593	34,3	319,7
2,5935	41,9	400,0
2,594	41,4	474,7
2,5945	40,2	534,9
2,595	44,1	572,0
2,5955	54,3	582,2
2,596	69,2	568,5
2,5965	86,2	535,8
2,597	102,3	486,8
2,5975	114,9	420,0
2,598	121,1	334,3
2,5985	117,5	233,1
2,599	102,2	124,1
2,5995	75,4	15,8
2,6	40,6	-87,1
2,6005	2,1	-183,8
2,601	-36,3	-275,2
2,6015	-72,4	-361,2
2,602	-105,7	-440,2
2,6025	-134,9	-507,6
2,603	-157,7	-556,4
2,6035	-171,8	-580,4
2,604	-176,3	-578,1
2,6045	-172,5	-553,6
2,605	-163,7	-511,8
2,6055	-152,1	-453,9
2,606	-138,2	-378,1
2,6065	-120,3	-284,4
2,607	-96,8	-178,1
2,6075	-68,1	-68,1
2,608	-36,5	37,2
2,6085	-5,0	133,5
2,609	24,6	221,7
2,6095	51,8	305,0
2,61	77,6	386,2
2,6105	103,3	463,6
2,611	129,5	530,1
2,6115	154,8	576,4
2,612	176,4	596,2
2,6125	191,5	589,8
2,613	198,7	561,3
2,6135	198,4	514,7
2,614	191,5	450,2
2,6145	178,4	366,3
2,615	159,2	265,4
2,6155	133,9	154,7
2,616	103,6	43,2
2,6165	70,2	-63,3
2,617	36,4	-162,7
2,6175	3,9	-255,4
2,618	-26,5	-341,3
2,6185	-55,0	-419,5
2,619	-81,3	-487,3
2,6195	-104,2	-539,5
2,62	-122,7	-569,5
2,6205	-136,1	-574,3
2,621	-144,8	-556,5
2,6215	-149,2	-521,3
2,622	-149,3	-471,4
2,6225	-144,4	-405,4
2,623	-133,6	-321,3
2,6235	-116,2	-221,6
2,624	-92,6	-114,0
2,6245	-64,4	-7,4
2,625	-34,2	91,9
2,6255	-4,2	182,5
2,626	23,6	267,2
2,6265	47,9	349,5
2,627	68,9	429,7
2,6275	87,8	501,8
2,628	105,8	556,3
2,6285	122,3	585,4
2,629	135,2	587,8
2,6295	143,0	567,7
2,63	145,8	529,9
2,6305	144,0	475,5
2,631	133,7	402,8
2,6315	105,9	311,8
2,632	55,3	207,0
2,6325	-13,3	96,8
2,633	-85,4	-11,7
2,6335	-146,3	-114,8
2,634	-187,1	-212,5
2,6345	-205,7	-304,4
2,635	-204,8	-389,1
2,6355	-190,0	-463,9
2,636	-166,3	-524,3
2,6365	-138,2	-564,5
2,637	-109,3	-580,3
2,6375	-82,1	-572,0
2,638	-58,5	-544,1
2,6385	-40,1	-500,5
2,639	-28,2	-441,6
2,6395	-23,0	-365,3
2,64	-24,3	-271,8
2,6405	-30,1	-166,7
2,641	-36,3	-58,8
2,6415	-37,7	44,1
2,642	-30,7	138,3
2,6425	-15,0	225,1
2,643	7,3	308,1
2,6435	33,8	389,6
2,644	61,9	466,2
2,6445	89,1	529,3
2,645	113,7	569,8
2,6455	135,3	583,4
2,646	153,7	571,8
2,6465	168,1	540,0
2,647	176,4	490,9
2,6475	175,3	424,0
2,648	162,0	338,4
2,6485	136,7	237,4
2,649	102,8	128,6
2,6495	65,3	20,5
2,65	28,1	-81,8
2,6505	-5,8	-177,5
2,651	-35,0	-267,6
2,6515	-59,0	-352,3
2,652	-78,3	-430,0
2,6525	-93,2	-496,6
2,653	-104,0	-545,7
2,6535	-110,8	-570,9
2,654	-113,7	-570,5
2,6545	-112,9	-548,5
2,655	-108,8	-509,8
2,6555	-101,4	-456,1
2,656	-90,9	-385,5
2,6565	-77,2	-297,0
2,657	-60,2	-195,1
2,6575	-40,3	-88,2
2,658	-18,1	15,0
2,6585	5,0	109,9
2,659	28,1	196,9
2,6595	50,9	280,1
2,66	73,4	362,7
2,6605	96,0	443,0
2,661	118,5	513,3
2,6615	139,7	563,3
2,662	157,6	586,3
2,6625	170,5	583,0
2,663	177,8	558,8
2,6635	179,3	518,0
2,664	174,8	460,5
2,6645	163,9	384,1
2,665	146,6	289,4
2,6655	123,5	182,8
2,666	96,0	73,1
2,6665	65,8	-32,5
2,667	34,5	-131,6
2,6675	3,5	-224,4
2,668	-26,6	-311,5
2,6685	-55,5	-392,5
2,669	-83,1	-465,5
2,6695	-108,8	-525,7
2,67	-131,0	-565,8
2,6705	-147,6	-580,3
2,671	-157,1	-569,7
2,6715	-160,1	-538,1
2,672	-157,8	-488,7
2,6725	-151,3	-421,4
2,673	-140,1	-335,5
2,6735	-123,4	-234,4
2,674	-101,1	-126,0
2,6745	-74,3	-19,0
2,675	-44,7	80,9
2,6755	-13,8	172,8
2,676	17,1	259,0
2,6765	47,1	342,4
2,677	75,6	422,8
2,6775	102,1	494,9
2,678	125,5	550,1
2,6785	144,0	581,2
2,679	155,9	586,5
2,6795	160,6	569,4
2,68	159,0	534,3
2,6805	152,8	482,4
2,681	143,1	412,3
2,6815	129,3	323,4
2,682	110,3	220,2
2,6825	85,9	110,5
2,683	57,4	2,0
2,6835	27,4	-101,3
2,684	-2,1	-198,3
2,6845	-30,2	-289,1
2,685	-56,4	-372,9
2,6855	-81,2	-448,0
2,686	-104,9	-510,1
2,6865	-127,4	-552,9
2,687	-147,2	-571,1
2,6875	-161,5	-564,5
2,688	-168,8	-537,9
2,6885	-169,8	-496,0
2,689	-165,6	-439,4
2,6895	-156,4	-366,0
2,69	-141,1	-275,3
2,6905	-120,2	-173,0
2,691	-98,8	-67,9
2,6915	-82,8	32,1
2,692	-74,6	124,2
2,6925	-69,8	210,8
2,693	-61,1	295,4
2,6935	-43,5	379,6
2,694	-16,1	459,2
2,6945	17,6	524,9
2,695	51,7	567,4
2,6955	81,4	582,0
2,696	104,6	570,7
2,6965	121,8	538,8
2,697	133,7	489,9
2,6975	139,6	423,2
2,698	138,4	337,3
2,6985	128,5	235,2
2,699	109,3	124,4
2,6995	81,2	14,4
2,7	46,2	-89,3
2,7005	7,3	-185,3
2,701	-31,7	-274,7
2,7015	-68,2	-357,8
2,702	-100,4	-433,8
2,7025	-128,0	-499,5
2,703	-151,3	-548,3
2,7035	-170,9	-573,7
2,704	-186,1	-573,5
2,7045	-195,0	-551,3
2,705	-195,1	-512,5
2,7055	-184,8	-458,5
2,706	-164,3	-387,5
2,7065	-135,2	-298,4
2,707	-100,0	-195,3
2,7075	-62,0	-86,8
2,708	-24,6	18,8
2,7085	9,8	116,3
2,709	39,8	205,5
2,7095	65,5	289,2
2,71	87,7	370,4
2,7105	108,0	448,3
2,711	128,2	516,4
2,7115	148,6	565,5
2,712	167,5	588,8
2,7125	181,9	585,8
2,713	189,4	560,5
2,7135	189,4	516,6
2,714	182,8	455,0
2,7145	170,5	374,6
2,715	153,2	276,8
2,7155	130,6	167,7
2,716	103,1	56,4
2,7165	72,2	-49,8
2,717	40,4	-148,4
2,7175	9,8	-240,4
2,718	-18,9	-326,7
2,7185	-45,7	-406,8
2,719	-70,8	-478,6
2,7195	-94,0	-536,5
2,72	-114,1	-573,2
2,7205	-129,7	-584,2
2,721	-139,2	-571,0
2,7215	-141,9	-539,0
2,722	-137,8	-491,6
2,7225	-127,7	-427,8
2,723	-112,2	-345,6
2,7235	-92,0	-247,1
2,724	-67,9	-139,4
2,7245	-41,3	-31,7
2,725	-16,6	69,2
2,7255	-2,5	161,4
2,726	-5,7	247,5
2,7265	-23,2	331,4
2,727	-42,5	413,7
2,7275	-50,3	489,3
2,728	-40,6	548,9
2,7285	-14,0	583,9
2,729	24,8	591,5
2,7295	69,8	574,8
2,73	115,6	539,1
2,7305	156,9	486,3
2,731	189,0	414,9
2,7315	207,6	324,4
2,732	210,6	218,6
2,7325	197,8	105,8
2,733	171,4	-5,0
2,7335	134,4	-108,5
2,734	88,6	-204,1
2,7345	35,3	-292,7
2,735	-22,0	-374,8
2,7355	-77,7	-449,4
2,736	-125,9	-512,1
2,7365	-163,7	-556,3
2,737	-190,1	-576,2
2,7375	-205,4	-571,4
2,738	-210,9	-546,2
2,7385	-208,1	-504,8
2,739	-197,6	-447,6
2,7395	-178,5	-372,7
2,74	-149,8	-280,7
2,7405	-113,0	-177,0
2,741	-72,6	-70,2
2,7415	-35,8	32,4
2,742	-8,5	127,0
2,7425	8,7	214,5
2,743	20,7	298,4
2,7435	33,5	380,6
2,744	50,7	458,2
2,7445	73,1	522,3
2,745	98,7	563,2
2,7455	124,2	576,6
2,746	146,3	565,0
2,7465	162,9	534,3
2,747	173,5	487,7
2,7475	178,0	424,6
2,748	175,6	343,0
2,7485	165,5	245,0
2,749	148,3	137,4
2,7495	125,6	29,0
2,75	99,7	-74,6
2,7505	71,9	-171,7
2,751	42,7	-262,8
2,7515	12,6	-347,7
2,752	-17,9	-425,4
2,7525	-48,3	-492,7
2,753	-77,3	-543,7
2,7535	-103,1	-572,0
2,754	-123,2	-575,0
2,7545	-136,2	-555,5
2,755	-142,7	-518,4
2,7555	-144,2	-465,4
2,756	-141,8	-395,0
2,7565	-135,4	-306,3
2,757	-123,9	-203,4
2,7575	-106,4	-94,8
2,758	-82,8	11,1
2,7585	-54,5	109,1
2,759	-24,0	198,6
2,7595	6,3	282,1
2,76	35,0	362,5
2,7605	62,0	439,5
2,761	87,9	507,1
2,7615	112,8	556,2
2,762	135,1	580,3
2,7625	152,4	578,8
2,763	163,5	555,8
2,7635	168,1	515,0
2,764	167,0	457,0
2,7645	160,3	379,7
2,765	147,1	283,4
2,7655	127,0	174,3
2,766	100,6	61,7
2,7665	70,3	-46,0
2,767	39,1	-145,8
2,7675	9,0	-238,4
2,768	-19,7	-324,8
2,7685	-47,3	-404,8
2,769	-73,6	-476,1
2,7695	-98,2	-533,7
2,77	-119,7	-570,8
2,7705	-136,6	-582,8
2,771	-147,6	-570,7
2,7715	-152,5	-539,5
2,772	-152,0	-492,6
2,7725	-146,8	-429,6
2,773	-136,8	-348,7
2,7735	-121,0	-251,7
2,774	-99,1	-145,1
2,7745	-72,3	-37,8
2,775	-42,8	63,6
2,7755	-13,0	156,7
2,776	16,0	243,7
2,7765	43,8	327,5
2,777	70,8	409,3
2,7775	96,4	484,4
2,778	118,0	544,1
2,7785	133,0	579,7
2,779	140,3	587,9
2,7795	141,3	572,1
2,78	138,0	537,1
2,7805	131,3	485,3
2,781	121,3	415,3
2,7815	106,8	326,5
2,782	87,3	223,0
2,7825	63,0	113,3
2,783	35,3	5,6
2,7835	6,3	-95,8
2,784	-22,3	-190,6
2,7845	-50,2	-279,5
2,785	-79,2	-362,9
2,7855	-113,3	-439,3
2,786	-154,9	-504,7
2,7865	-200,2	-552,1
2,787	-240,5	-575,0
2,7875	-267,1	-572,2
2,788	-276,2	-547,7
2,7885	-268,3	-506,4
2,789	-245,3	-449,4
2,7895	-209,8	-374,5
2,79	-164,2	-281,9
2,7905	-111,7	-177,2
2,791	-56,8	-69,5
2,7915	-4,4	33,0
2,792	41,0	126,4
2,7925	76,9	211,9
2,793	103,5	293,4
2,7935	123,3	373,9
2,794	139,0	451,4
2,7945	151,5	517,7
2,795	159,6	562,8
2,7955	162,0	580,8
2,796	158,7	573,1
2,7965	151,3	545,0
2,797	142,2	500,5
2,7975	132,0	439,3
2,798	119,2	359,7
2,7985	101,9	263,2
2,799	80,6	156,4
2,7995	58,1	47,9
2,8	37,6	-56,6
2,8005	19,6	-155,3
2,801	2,3	-248,8
2,8015	-15,8	-336,3
2,802	-34,8	-416,2
2,8025	-54,2	-484,9
2,803	-73,2	-536,7
2,8035	-90,3	-565,3
2,804	-103,7	-568,1
2,8045	-111,5	-547,5
2,805	-113,5	-508,8
2,8055	-111,0	-454,5
2,806	-105,0	-383,5
2,8065	-95,6	-294,9
2,807	-81,8	-192,8
2,8075	-63,0	-85,3
2,808	-39,4	19,3
2,8085	-13,1	115,8
2,809	9,6	203,4
2,8095	19,1	284,3
2,81	10,6	362,2
2,8105	-10,3	437,8
2,811	-29,9	505,5
2,8115	-36,5	555,7
2,812	-26,5	580,4
2,8125	-2,3	578,6
2,813	30,9	554,3
2,8135	68,6	512,3
2,814	107,0	453,9
2,8145	142,4	378,2
2,815	169,8	285,5
2,8155	184,3	180,9
2,816	183,3	72,2
2,8165	167,3	-33,7
2,817	139,4	-133,6
2,8175	103,7	-227,2
2,818	63,4	-314,7
2,8185	21,2	-395,5
2,819	-20,9	-467,8
2,8195	-60,8	-526,6
2,82	-96,3	-565,5
2,8205	-125,3	-579,5
2,821	-146,4	-569,1
2,8215	-159,5	-538,7
2,822	-165,8	-491,8
2,8225	-165,9	-428,0
2,823	-158,6	-345,9
2,8235	-141,5	-247,3
2,824	-114,0	-139,5
2,8245	-78,9	-31,5
2,825	-40,5	69,6
2,8255	-3,2	161,7
2,826	30,7	247,0
2,8265	60,5	329,2
2,827	87,5	409,5
2,8275	113,0	483,7
2,828	137,1	542,8
2,8285	157,9	578,5
2,829	172,7	587,6
2,8295	180,0	572,8
2,83	180,1	538,5
2,8305	174,2	487,0
2,831	163,3	417,0
2,8315	147,7	328,1
2,832	127,7	224,6
2,8325	104,0	114,8
2,833	76,7	7,3
2,8335	44,0	-93,2
2,834	3,8	-186,4
2,8345	-42,5	-273,5
2,835	-89,9	-354,8
2,8355	-132,4	-429,2
2,836	-166,6	-492,7
2,8365	-191,2	-539,1
2,837	-205,7	-562,6
2,8375	-209,7	-561,7
2,838	-203,3	-539,6
2,8385	-188,6	-500,2
2,839	-167,8	-443,9
2,8395	-142,8	-369,0
2,84	-114,6	-275,8
2,8405	-83,7	-170,1
2,841	-51,1	-61,0
2,8415	-19,1	43,4
2,842	9,7	138,8
2,8425	33,8	225,2
2,843	53,6	305,5
2,8435	71,3	381,6
2,844	88,8	451,7
2,8445	106,9	509,4
2,845	124,7	547,7
2,8455	139,9	562,9
2,846	150,4	556,7
2,8465	155,0	533,0
2,847	154,1	493,6
2,8475	148,4	436,9
2,848	138,3	360,2
2,8485	123,7	265,0
2,849	104,3	157,9
2,8495	80,1	48,1
2,85	52,1	-57,9
2,8505	21,3	-157,5
2,851	-10,6	-250,6
2,8515	-42,0	-337,4
2,852	-72,0	-416,9
2,8525	-99,8	-486,3
2,853	-124,7	-539,9
2,8535	-145,1	-571,3
2,854	-159,1	-577,3
2,8545	-165,6	-560,2
2,855	-165,7	-524,7
2,8555	-161,9	-473,3
2,856	-155,9	-404,7
2,8565	-146,7	-317,6
2,857	-132,5	-215,6
2,8575	-112,9	-107,1
2,858	-88,6	-1,6
2,8585	-61,2	95,4
2,859	-32,0	183,8
2,8595	-2,2	267,0
2,86	26,8	348,7
2,8605	53,5	428,2
2,861	77,3	498,8
2,8615	98,2	550,8
2,862	115,6	576,8
2,8625	128,1	576,4
2,863	133,9	554,5
2,8635	133,3	515,8
2,864	127,4	461,0
2,8645	117,6	387,9
2,865	104,4	296,3
2,8655	87,2	191,8
2,866	65,8	83,0
2,8665	40,7	-22,9
2,867	13,5	-122,7
2,8675	-14,4	-216,4
2,868	-42,1	-304,5
2,8685	-69,0	-386,7
2,869	-94,4	-460,7
2,8695	-117,3	-521,3
2,87	-136,6	-561,7
2,8705	-151,1	-577,0
2,871	-160,0	-567,9
2,8715	-162,5	-539,1
2,872	-158,8	-494,3
2,8725	-148,9	-432,6
2,873	-132,6	-351,8
2,8735	-109,6	-252,9
2,874	-81,3	-143,0
2,8745	-50,8	-31,7
2,875	-21,0	72,6
2,8755	6,8	166,7
2,876	32,1	252,2
2,8765	55,2	333,2
2,877	76,8	412,4
2,8775	97,9	486,6
2,878	119,2	547,5
2,8785	139,7	586,1
2,879	157,1	597,8
2,8795	168,3	584,3
2,88	171,4	549,5
2,8805	166,2	496,1
2,881	153,6	423,5
2,8815	134,9	331,2
2,882	111,5	223,3
2,8825	85,3	109,0
2,883	57,8	-2,1
2,8835	30,5	-104,7
2,884	3,4	-198,7
2,8845	-23,8	-285,9
2,885	-51,3	-367,1
2,8855	-79,2	-441,3
2,886	-108,5	-505,0
2,8865	-140,9	-552,1
2,887	-177,0	-576,5
2,8875	-213,3	-576,3
2,888	-244,0	-554,7
2,8885	-264,0	-516,1
2,889	-271,8	-461,5
2,8895	-270,1	-388,8
2,89	-264,3	-297,8
2,8905	-258,1	-193,6
2,891	-250,0	-85,0
2,8915	-234,9	20,0
2,892	-208,5	117,2
2,8925	-169,8	206,9
2,893	-120,5	292,1
2,8935	-63,3	374,9
2,894	-1,3	453,5
2,8945	62,0	520,8
2,895	122,1	567,9
2,8955	173,9	589,2
2,896	213,5	585,1
2,8965	238,7	560,0
2,897	249,1	517,6
2,8975	245,8	457,5
2,898	230,6	378,1
2,8985	204,8	280,7
2,899	170,6	172,3
2,8995	130,8	62,0
2,9	88,5	-43,6
2,9005	47,0	-142,3
2,901	6,9	-234,8
2,9015	-37,1	-321,4
2,902	-92,5	-401,3
2,9025	-160,5	-471,7
2,903	-231,7	-526,8
2,9035	-290,3	-560,1
2,904	-324,1	-568,4
2,9045	-329,1	-554,1
2,905	-308,3	-522,2
2,9055	-268,7	-475,0
2,906	-216,9	-411,0
2,9065	-157,7	-328,7
2,907	-95,2	-230,9
2,9075	-33,6	-125,5
2,908	22,0	-21,3
2,9085	68,1	76,1
2,909	103,5	165,8
2,9095	129,7	250,8
2,91	148,8	334,8
2,9105	163,5	418,1
2,911	176,1	494,6
2,9115	187,9	553,8
2,912	197,8	587,4
2,9125	203,2	593,2
2,913	201,9	575,3
2,9135	193,8	538,8
2,914	179,8	485,4
2,9145	160,9	413,4
2,915	137,6	322,3
2,9155	110,9	216,3
2,916	81,9	103,6
2,9165	50,9	-8,2
2,917	17,9	-115,0
2,9175	-16,4	-215,8
2,918	-50,6	-309,6
2,9185	-82,8	-395,3
2,919	-111,7	-470,5
2,9195	-136,9	-530,9
2,92	-158,1	-571,2
2,9205	-174,9	-587,2
2,921	-186,3	-579,6
2,9215	-192,1	-552,4
2,922	-192,8	-509,1
2,9225	-189,2	-449,7
2,923	-180,5	-372,2
2,9235	-165,6	-277,4
2,924	-143,5	-171,4
2,9245	-115,1	-63,3
2,925	-82,7	39,7
2,9255	-49,3	134,5
2,926	-17,0	222,8
2,9265	13,9	308,3
2,927	44,0	391,9
2,9275	73,8	470,0
2,928	102,3	533,7
2,9285	127,1	574,2
2,929	146,2	587,5
2,9295	157,9	576,1
2,93	161,8	544,8
2,9305	157,8	496,3
2,931	146,7	429,6
2,9315	129,2	343,6
2,932	106,3	241,1
2,9325	79,3	129,4
2,933	49,9	17,1
2,9335	20,2	-89,8
2,934	-8,1	-189,3
2,9345	-34,1	-281,2
2,935	-57,9	-365,7
2,9355	-80,3	-442,3
2,936	-102,3	-508,0
2,9365	-123,6	-557,1
2,937	-142,2	-583,7
2,9375	-155,3	-585,4
2,938	-161,4	-565,0
2,9385	-161,0	-526,7
2,939	-157,4	-471,9
2,9395	-154,3	-399,6
2,94	-152,5	-309,6
2,9405	-149,3	-206,6
2,941	-140,6	-98,8
2,9415	-124,1	6,0
2,942	-100,5	103,4
2,9425	-71,8	193,4
2,943	-39,9	278,8
2,9435	-6,3	362,1
2,944	28,7	441,7
2,9445	64,2	510,6
2,945	98,5	559,1
2,9455	128,9	581,2
2,946	152,6	577,3
2,9465	168,2	552,1
2,947	175,8	510,0
2,9475	176,3	451,1
2,948	169,9	373,4
2,9485	156,0	278,0
2,949	134,3	170,9
2,9495	105,8	61,0
2,95	73,1	-44,9
2,9505	38,9	-144,4
2,951	5,7	-237,6
2,9515	-26,1	-324,8
2,952	-57,5	-405,1
2,9525	-89,8	-475,8
2,953	-122,7	-531,5
2,9535	-153,3	-565,8
2,954	-177,0	-575,1
2,9545	-190,6	-561,0
2,955	-194,1	-528,2
2,9555	-190,1	-479,6
2,956	-181,0	-414,2
2,9565	-167,3	-330,4
2,957	-148,4	-231,4
2,9575	-123,6	-124,7
2,958	-93,8	-18,8
2,9585	-60,7	80,9
2,959	-27,1	173,2
2,9595	4,7	260,2
2,96	33,3	344,5
2,9605	59,0	426,1
2,961	82,6	499,5
2,9615	104,3	555,5
2,962	123,3	586,6
2,9625	137,8	590,9
2,963	146,0	572,2
2,9635	147,9	535,2
2,964	144,9	481,3
2,9645	138,0	408,8
2,965	126,9	317,3
2,9655	110,3	211,7
2,966	87,5	101,2
2,9665	59,6	-6,0
2,967	28,8	-106,4
2,9675	-2,9	-200,5
2,968	-34,3	-289,6
2,9685	-64,3	-373,1
2,969	-92,6	-448,9
2,9695	-118,7	-512,0
2,97	-141,7	-555,6
2,9705	-160,3	-574,3
2,971	-172,6	-567,5
2,9715	-177,8	-540,1
2,972	-176,6	-496,3
2,9725	-169,5	-436,7
2,973	-156,6	-359,2
2,9735	-136,9	-264,3
2,974	-110,9	-158,4
2,9745	-80,9	-51,0
2,975	-49,4	50,2
2,9755	-18,6	142,5
2,976	10,2	227,8
2,9765	35,5	309,3
2,977	56,3	388,6
2,9775	72,3	462,5
2,978	84,5	523,2
2,9785	94,1	562,2
2,979	101,6	575,5
2,9795	105,6	565,2
2,98	104,7	535,8
2,9805	98,4	490,0
2,981	87,8	426,4
2,9815	74,5	343,4
2,982	58,3	243,9
2,9825	38,4	135,2
2,983	15,3	26,3
2,9835	-9,5	-77,3
2,984	-33,6	-174,1
2,9845	-55,5	-264,8
2,985	-74,9	-349,2
2,9855	-92,2	-426,1
2,986	-108,2	-492,0
2,9865	-123,1	-540,9
2,987	-136,3	-566,9
2,9875	-146,3	-567,9
2,988	-151,6	-547,6
2,9885	-151,8	-510,5
2,989	-147,7	-457,6
2,9895	-142,9	-386,5
2,99	-142,6	-296,5
2,9905	-149,0	-192,4
2,991	-158,6	-83,3
2,9915	-163,6	22,5
2,992	-157,0	120,2
2,9925	-136,6	209,9
2,993	-103,6	294,8
2,9935	-61,3	377,5
2,994	-13,4	456,8
2,9945	36,4	525,4
2,995	84,8	574,0
2,9955	128,7	596,2
2,996	164,5	591,6
2,9965	189,3	564,8
2,997	201,9	520,1
2,9975	202,8	458,8
2,998	193,4	379,6
2,9985	175,0	283,7
2,999	149,3	176,8
2,9995	117,5	67,1
3	79,7	-38,7
3,0005	35,7	-138,3
3,001	-12,7	-231,9
3,0015	-60,2	-319,7
3,002	-101,8	-400,8
3,0025	-135,7	-472,6
3,003	-162,1	-530,3
3,0035	-180,7	-568,0
3,004	-190,8	-581,3
3,0045	-191,5	-570,9
3,005	-184,1	-540,9
3,0055	-170,3	-494,3
3,006	-151,7	-431,0
3,0065	-128,3	-349,5
3,007	-100,5	-252,0
3,0075	-69,2	-145,4
3,008	-36,2	-38,0
3,0085	-4,4	63,8
3,009	24,6	157,6
3,0095	50,2	245,4
3,01	73,2	330,2
3,0105	94,7	412,8
3,011	115,1	488,3
3,0115	133,6	547,5
3,012	145,2	581,6
3,0125	140,1	587,8
3,013	111,3	569,6
3,0135	62,1	532,8
3,014	6,3	479,5
3,0145	-41,1	408,4
3,015	-72,4	318,1
3,0155	-86,8	212,3
3,016	-87,4	99,5
3,0165	-77,7	-11,3
3,017	-60,9	-114,7
