Interval=	0,0005 s
ExcelDateTime=	4,5911501602166485e+004	11/09/2025 12:02:18,427184
TimeFormat=	StartOfBlock
DateFormat=	
ChannelTitle=	Biceps	Triceps
Range=	1000,0 µV	1000,0 µV
0	0,2	0,0
0,0005	2,3	0,8
0,001	8,6	3,0
0,0015	18,7	7,1
0,002	30,0	12,2
0,0025	39,5	17,2
0,003	45,8	21,6
0,0035	49,3	25,3
0,004	50,0	28,1
0,0045	48,3	29,5
0,005	44,9	29,0
0,0055	40,9	27,0
0,006	37,0	24,2
0,0065	33,6	21,2
0,007	30,8	18,8
0,0075	28,6	17,7
0,008	27,1	18,3
0,0085	26,3	20,6
0,009	26,2	23,8
0,0095	25,9	26,9
0,01	25,3	28,8
0,0105	24,3	29,0
0,011	23,6	27,9
0,0115	23,2	26,1
0,012	23,1	23,9
0,0125	23,2	21,8
0,013	23,4	20,8
0,0135	23,7	21,5
0,014	23,8	23,7
0,0145	23,3	26,4
0,015	22,5	28,8
0,0155	22,0	30,0
0,016	22,6	29,8
0,0165	24,2	28,3
0,017	25,9	26,0
0,0175	27,0	23,5
0,018	27,4	21,7
0,0185	27,7	21,1
0,019	28,4	21,9
0,0195	29,9	23,7
0,02	31,8	26,2
0,0205	34,0	29,0
0,021	36,2	31,1
0,0215	38,5	31,4
0,022	41,1	29,7
0,0225	43,8	26,6
0,023	46,3	23,2
0,0235	47,8	20,4
0,024	47,9	18,8
0,0245	46,6	18,8
0,025	44,3	20,3
0,0255	41,7	22,8
0,026	39,3	25,4
0,0265	37,3	27,3
0,027	35,5	27,8
0,0275	33,7	26,8
0,028	31,6	25,0
0,0285	28,4	23,0
0,029	23,3	21,5
0,0295	16,5	21,2
0,03	8,7	22,2
0,0305	1,5	24,1
0,031	-4,0	26,3
0,0315	-7,4	28,3
0,032	-8,6	29,7
0,0325	-7,2	30,3
0,033	-2,0	29,6
0,0335	7,2	27,7
0,034	19,1	25,0
0,0345	31,1	22,6
0,035	40,9	21,1
0,0355	47,2	20,9
0,036	49,6	21,5
0,0365	48,8	22,5
0,037	46,6	23,9
0,0375	44,6	25,3
0,038	43,0	25,8
0,0385	41,1	24,8
0,039	38,4	22,4
0,0395	34,9	19,6
0,04	30,9	17,1
0,0405	26,7	15,4
0,041	22,6	15,1
0,0415	18,4	16,3
0,042	13,9	18,9
0,0425	9,3	22,2
0,043	4,8	25,2
0,0435	0,6	26,8
0,044	-3,1	26,9
0,0445	-6,3	25,6
0,045	-9,1	23,3
0,0455	-11,6	20,6
0,046	-14,1	18,4
0,0465	-16,3	17,6
0,047	-17,3	18,4
0,0475	-16,5	20,5
0,048	-14,1	22,9
0,0485	-10,3	24,8
0,049	-6,2	25,9
0,0495	-2,4	25,6
0,05	0,3	24,0
0,0505	2,3	21,2
0,051	4,1	18,2
0,0515	6,4	16,0
0,052	9,5	15,4
0,0525	13,6	16,3
0,053	18,8	18,3
0,0535	24,8	20,7
0,054	31,2	22,8
0,0545	37,3	23,9
0,055	42,5	23,2
0,0555	46,1	21,0
0,056	47,6	18,2
0,0565	47,7	15,5
0,057	47,4	13,9
0,0575	47,6	14,0
0,058	48,2	16,1
0,0585	48,4	19,5
0,059	47,8	23,3
0,0595	46,3	26,4
0,06	44,1	28,2
0,0605	41,4	28,6
0,061	38,5	27,9
0,0615	35,1	26,4
0,062	31,3	24,3
0,0625	27,9	21,6
0,063	26,0	19,6
0,0635	26,2	19,1
0,064	28,0	20,3
0,0645	30,8	22,8
0,065	34,1	25,2
0,0655	37,5	26,7
0,066	40,6	26,4
0,0665	43,1	24,4
0,067	45,1	21,2
0,0675	47,4	17,8
0,068	50,1	15,1
0,0685	52,7	13,8
0,069	54,7	13,8
0,0695	55,5	15,0
0,07	55,0	17,0
0,0705	52,8	19,4
0,071	49,0	21,4
0,0715	44,1	22,0
0,072	38,8	20,7
0,0725	34,1	17,8
0,073	30,1	14,6
0,0735	27,0	12,0
0,074	25,5	11,1
0,0745	26,1	12,0
0,075	28,7	14,7
0,0755	33,0	18,3
0,076	38,4	22,0
0,0765	44,4	24,7
0,077	49,5	25,7
0,0775	52,2	25,1
0,078	52,3	23,3
0,0785	50,4	20,9
0,079	47,1	18,8
0,0795	42,9	17,9
0,08	38,1	19,0
0,0805	33,1	21,7
0,081	28,2	24,9
0,0815	23,9	27,9
0,082	20,3	30,3
0,0825	17,2	31,4
0,083	14,5	31,0
0,0835	12,0	29,2
0,084	9,5	26,6
0,0845	7,4	23,9
0,085	6,2	22,3
0,0855	6,5	22,2
0,086	8,3	23,6
0,0865	11,3	25,8
0,087	15,1	28,3
0,0875	19,4	30,5
0,088	23,9	31,4
0,0885	29,1	30,5
0,089	34,7	28,1
0,0895	39,8	25,2
0,09	43,5	22,7
0,0905	45,3	21,5
0,091	45,0	22,3
0,0915	43,3	24,9
0,092	40,2	28,8
0,0925	35,5	33,0
0,093	29,3	36,2
0,0935	22,2	37,7
0,094	15,8	37,3
0,0945	11,0	35,7
0,095	8,4	33,5
0,0955	8,1	31,4
0,096	10,0	30,1
0,0965	13,8	30,2
0,097	18,8	32,0
0,0975	23,2	34,7
0,098	25,3	37,7
0,0985	24,1	40,2
0,099	20,3	41,6
0,0995	15,7	41,7
0,1	12,2	40,4
0,1005	11,6	38,2
0,101	14,2	35,6
0,1015	19,4	33,5
0,102	25,8	32,3
0,1025	32,3	32,5
0,103	38,7	33,8
0,1035	44,5	36,2
0,104	49,1	39,2
0,1045	52,3	41,7
0,105	54,2	42,7
0,1055	55,0	41,9
0,106	54,8	39,8
0,1065	52,9	37,1
0,107	48,8	34,9
0,1075	42,4	33,7
0,108	34,8	34,0
0,1085	27,8	35,8
0,109	23,1	38,7
0,1095	21,4	41,8
0,11	23,0	43,8
0,1105	26,7	44,1
0,111	30,9	42,7
0,1115	34,4	40,3
0,112	37,1	37,8
0,1125	39,8	35,7
0,113	42,8	34,9
0,1135	46,1	35,8
0,114	49,2	38,1
0,1145	52,0	41,0
0,115	55,1	43,8
0,1155	58,6	45,7
0,116	61,8	46,2
0,1165	63,7	45,0
0,117	63,9	42,6
0,1175	62,7	39,7
0,118	60,5	37,4
0,1185	57,8	36,6
0,119	55,0	37,3
0,1195	52,8	39,0
0,12	51,5	41,1
0,1205	51,1	43,4
0,121	51,8	45,2
0,1215	53,1	45,8
0,122	54,6	44,9
0,1225	55,5	42,9
0,123	55,8	40,2
0,1235	55,6	37,3
0,124	55,3	35,0
0,1245	54,8	34,3
0,125	53,9	35,6
0,1255	52,6	38,5
0,126	50,9	41,8
0,1265	48,6	44,2
0,127	45,3	44,7
0,1275	41,2	43,5
0,128	36,7	41,3
0,1285	32,5	38,7
0,129	28,8	36,5
0,1295	26,1	35,2
0,13	24,9	35,3
0,1305	25,6	36,5
0,131	28,0	38,3
0,1315	31,3	40,3
0,132	34,2	41,9
0,1325	36,0	42,6
0,133	36,3	41,8
0,1335	35,2	39,7
0,134	33,1	36,7
0,1345	30,7	33,8
0,135	28,1	31,8
0,1355	25,4	31,1
0,136	22,3	31,6
0,1365	18,6	33,2
0,137	13,7	35,4
0,1375	8,2	37,7
0,138	3,3	38,7
0,1385	0,6	38,0
0,139	1,0	35,8
0,1395	4,0	33,0
0,14	8,3	30,6
0,1405	12,3	29,1
0,141	15,0	28,6
0,1415	16,6	29,3
0,142	17,4	30,8
0,1425	18,2	33,0
0,143	19,7	35,2
0,1435	21,9	36,6
0,144	24,7	36,9
0,1445	27,6	36,4
0,145	30,4	35,3
0,1455	33,0	33,9
0,146	35,3	32,7
0,1465	37,9	32,3
0,147	41,2	33,3
0,1475	45,5	35,6
0,148	50,5	38,3
0,1485	55,2	40,6
0,149	58,7	41,7
0,1495	60,4	41,2
0,15	59,9	39,3
0,1505	57,7	36,3
0,151	54,4	33,3
0,1515	50,4	31,2
0,152	46,2	30,6
0,1525	41,9	31,6
0,153	38,2	33,7
0,1535	35,8	36,3
0,154	35,2	38,6
0,1545	36,2	39,9
0,155	38,1	39,6
0,1555	39,9	38,0
0,156	40,9	35,9
0,1565	40,7	34,0
0,157	39,5	32,9
0,1575	37,7	33,0
0,158	35,6	34,5
0,1585	33,4	37,4
0,159	31,4	40,8
0,1595	29,8	44,0
0,16	28,3	46,2
0,1605	27,1	47,3
0,161	26,2	47,3
0,1615	25,8	46,4
0,162	25,8	44,7
0,1625	26,0	42,9
0,163	26,3	42,3
0,1635	27,2	43,7
0,164	28,5	46,8
0,1645	29,6	50,6
0,165	30,0	54,2
0,1655	29,9	56,7
0,166	29,6	57,4
0,1665	29,2	56,2
0,167	28,3	53,5
0,1675	27,0	50,2
0,168	25,3	47,1
0,1685	23,7	45,2
0,169	22,6	44,8
0,1695	23,2	45,7
0,17	26,0	47,3
0,1705	30,7	49,6
0,171	36,0	51,7
0,1715	40,3	52,7
0,172	42,8	52,4
0,1725	43,1	51,2
0,173	41,6	49,5
0,1735	39,4	48,2
0,174	36,8	47,8
0,1745	34,2	49,1
0,175	31,5	51,7
0,1755	29,3	54,8
0,176	27,8	57,3
0,1765	27,3	58,7
0,177	27,3	59,0
0,1775	27,2	58,4
0,178	26,7	57,2
0,1785	25,9	55,4
0,179	24,8	53,4
0,1795	23,0	52,2
0,18	20,1	52,6
0,1805	16,4	54,7
0,181	12,9	57,4
0,1815	10,6	59,8
0,182	9,7	61,2
0,1825	9,8	61,3
0,183	11,2	60,1
0,1835	14,4	57,9
0,184	20,7	55,2
0,1845	30,7	52,7
0,185	44,4	51,3
0,1855	60,5	51,5
0,186	76,3	53,0
0,1865	88,9	55,1
0,187	96,0	57,1
0,1875	96,5	58,6
0,188	90,8	58,8
0,1885	80,3	57,5
0,189	66,6	55,1
0,1895	51,7	52,2
0,19	37,7	49,3
0,1905	25,8	46,8
0,191	16,5	45,5
0,1915	9,5	45,7
0,192	4,5	47,2
0,1925	1,2	49,3
0,193	0,3	51,1
0,1935	2,1	52,0
0,194	6,1	51,9
0,1945	11,0	51,1
0,195	15,2	49,9
0,1955	18,1	48,6
0,196	20,0	47,6
0,1965	21,5	47,8
0,197	23,0	49,4
0,1975	24,7	52,1
0,198	26,2	55,0
0,1985	27,0	57,2
0,199	27,3	58,1
0,1995	27,6	57,4
0,2	28,8	55,1
0,2005	31,1	51,8
0,201	34,1	48,5
0,2015	36,7	46,2
0,202	37,9	45,4
0,2025	37,2	46,2
0,203	34,7	48,0
0,2035	31,1	50,1
0,204	27,1	51,9
0,2045	22,8	52,9
0,205	18,2	52,7
0,2055	13,3	51,4
0,206	8,3	49,7
0,2065	3,7	47,9
0,207	0,1	46,7
0,2075	-1,9	46,5
0,208	-1,9	47,8
0,2085	0,0	50,2
0,209	3,8	52,8
0,2095	9,1	55,0
0,21	15,9	56,0
0,2105	23,8	55,4
0,211	32,6	53,7
0,2115	42,0	51,3
0,212	51,6	48,8
0,2125	61,2	46,6
0,213	70,1	45,3
0,2135	77,7	45,5
0,214	82,8	46,9
0,2145	84,3	49,0
0,215	82,8	51,4
0,2155	79,8	53,1
0,216	76,9	53,3
0,2165	74,8	51,8
0,217	72,9	48,8
0,2175	70,2	45,4
0,218	65,8	42,8
0,2185	59,3	41,6
0,219	51,5	41,7
0,2195	43,6	42,5
0,22	36,7	43,5
0,2205	31,4	44,7
0,221	27,9	45,3
0,2215	26,1	44,4
0,222	25,9	41,6
0,2225	26,8	37,9
0,223	28,1	34,4
0,2235	28,9	32,0
0,224	28,8	31,3
0,2245	28,1	32,3
0,225	26,5	34,4
0,2255	24,4	37,1
0,226	21,7	39,7
0,2265	19,1	41,3
0,227	17,2	41,7
0,2275	16,3	40,7
0,228	16,3	39,0
0,2285	17,1	36,8
0,229	18,3	34,6
0,2295	19,9	33,2
0,23	21,8	33,4
0,2305	24,2	35,1
0,231	26,7	37,3
0,2315	28,9	39,3
0,232	30,5	40,6
0,2325	31,3	41,1
0,233	31,9	40,4
0,2335	32,3	38,5
0,234	32,8	35,6
0,2345	33,3	32,5
0,235	33,9	30,3
0,2355	34,8	29,7
0,236	36,1	30,7
0,2365	37,9	32,6
0,237	40,0	34,9
0,2375	41,8	37,0
0,238	43,1	37,8
0,2385	43,6	36,8
0,239	43,2	34,4
0,2395	41,6	31,4
0,24	38,6	28,6
0,2405	34,3	26,7
0,241	29,9	26,1
0,2415	26,3	27,0
0,242	24,3	29,3
0,2425	23,7	32,2
0,243	24,3	34,6
0,2435	25,7	35,7
0,244	27,9	35,1
0,2445	30,3	33,2
0,245	32,7	30,8
0,2455	34,7	28,3
0,246	36,6	26,4
0,2465	38,3	25,8
0,247	39,5	26,7
0,2475	39,9	28,7
0,248	39,3	31,2
0,2485	37,5	33,6
0,249	34,9	35,3
0,2495	31,6	35,3
0,25	27,5	33,3
0,2505	23,0	30,2
0,251	18,5	26,9
0,2515	15,0	24,8
0,252	13,3	24,2
0,2525	14,0	25,1
0,253	16,6	27,3
0,2535	20,1	30,3
0,254	23,1	33,5
0,2545	25,0	35,6
0,255	25,8	35,8
0,2555	25,8	34,0
0,256	25,9	31,0
0,2565	26,7	27,8
0,257	28,4	25,1
0,2575	30,4	23,4
0,258	31,8	22,9
0,2585	32,5	23,5
0,259	32,1	24,9
0,2595	30,6	26,4
0,26	28,3	27,1
0,2605	25,6	26,4
0,261	22,6	24,5
0,2615	19,4	22,1
0,262	16,3	19,6
0,2625	14,1	17,6
0,263	13,4	16,9
0,2635	13,9	17,6
0,264	14,8	19,6
0,2645	15,4	22,3
0,265	15,9	24,8
0,2655	16,7	26,4
0,266	18,3	26,3
0,2665	20,8	24,6
0,267	23,9	21,7
0,2675	27,2	18,4
0,268	30,7	15,9
0,2685	34,3	14,6
0,269	38,1	14,6
0,2695	41,7	15,9
0,27	44,3	17,9
0,2705	45,3	20,2
0,271	45,4	21,9
0,2715	45,3	22,1
0,272	45,0	20,5
0,2725	44,4	18,1
0,273	43,2	15,6
0,2735	41,3	13,8
0,274	39,5	13,3
0,2745	38,0	14,5
0,275	37,0	17,3
0,2755	36,4	21,0
0,276	36,0	24,5
0,2765	35,9	27,0
0,277	36,8	27,8
0,2775	39,6	27,1
0,278	45,0	25,3
0,2785	52,5	23,1
0,279	60,0	21,0
0,2795	65,1	19,7
0,28	66,4	19,6
0,2805	63,9	20,5
0,281	58,4	22,1
0,2815	51,2	23,6
0,282	43,1	24,7
0,2825	34,8	25,1
0,283	27,1	24,8
0,2835	21,1	23,5
0,284	17,7	21,7
0,2845	17,0	19,5
0,285	18,9	17,8
0,2855	22,7	17,3
0,286	27,7	18,1
0,2865	32,5	19,9
0,287	36,6	22,1
0,2875	40,2	23,9
0,288	43,4	24,2
0,2885	45,7	22,7
0,289	46,5	20,1
0,2895	45,8	17,5
0,29	43,5	15,6
0,2905	39,7	14,6
0,291	34,8	14,9
0,2915	29,3	16,8
0,292	23,9	19,8
0,2925	19,0	23,4
0,293	14,7	26,2
0,2935	11,0	27,5
0,294	8,1	27,1
0,2945	6,2	25,7
0,295	5,5	24,0
0,2955	6,7	22,3
0,296	9,8	21,1
0,2965	14,2	21,3
0,297	18,9	22,9
0,2975	23,0	25,8
0,298	26,4	28,9
0,2985	29,3	31,6
0,299	32,0	33,3
0,2995	34,8	33,8
0,3	37,6	33,2
0,3005	40,0	31,5
0,301	41,3	29,6
0,3015	41,2	28,0
0,302	39,3	27,4
0,3025	36,3	28,1
0,303	33,0	29,7
0,3035	30,1	31,8
0,304	27,9	33,8
0,3045	26,2	34,5
0,305	24,3	33,4
0,3055	21,8	30,9
0,306	18,7	27,8
0,3065	16,0	25,1
0,307	14,8	23,2
0,3075	15,5	22,6
0,308	17,8	23,6
0,3085	20,5	26,0
0,309	22,4	28,9
0,3095	22,6	31,6
0,31	20,9	33,3
0,3105	18,3	34,1
0,311	15,8	34,0
0,3115	14,4	33,4
0,312	14,0	32,2
0,3125	14,8	31,1
0,313	16,8	30,9
0,3135	19,8	32,2
0,314	23,0	34,6
0,3145	25,3	37,2
0,315	26,5	39,2
0,3155	26,6	40,5
0,316	25,9	40,7
0,3165	24,6	39,7
0,317	23,0	37,4
0,3175	21,6	34,4
0,318	21,1	31,7
0,3185	21,7	30,3
0,319	23,5	30,4
0,3195	26,1	31,7
0,32	28,9	33,5
0,3205	30,9	35,6
0,321	31,1	37,1
0,3215	28,9	37,2
0,322	25,2	35,7
0,3225	21,7	33,2
0,323	20,0	30,4
0,3235	20,8	28,4
0,324	23,8	27,7
0,3245	28,3	28,8
0,325	33,2	31,5
0,3255	37,0	35,3
0,326	38,5	39,0
0,3265	37,9	41,6
0,327	36,0	42,4
0,3275	34,3	41,5
0,328	34,0	39,6
0,3285	36,5	37,4
0,329	42,3	35,4
0,3295	50,2	34,2
0,33	58,0	34,6
0,3305	63,8	36,3
0,331	67,2	38,9
0,3315	68,6	41,6
0,332	69,1	43,6
0,3325	69,4	44,4
0,333	69,5	43,6
0,3335	69,0	41,5
0,334	67,3	38,8
0,3345	63,9	35,9
0,335	58,4	34,0
0,3355	50,7	33,5
0,336	41,3	34,6
0,3365	31,8	36,7
0,337	23,6	39,1
0,3375	17,6	41,2
0,338	13,8	41,8
0,3385	11,9	40,8
0,339	11,6	38,5
0,3395	12,6	35,9
0,34	14,4	33,7
0,3405	16,3	32,3
0,341	18,0	32,3
0,3415	19,6	33,6
0,342	21,2	36,0
0,3425	23,1	39,0
0,343	24,9	41,8
0,3435	26,5	43,5
0,344	27,7	43,8
0,3445	28,9	42,7
0,345	29,9	40,7
0,3455	30,3	38,4
0,346	29,3	36,8
0,3465	26,8	36,7
0,347	23,4	38,2
0,3475	19,6	40,8
0,348	15,5	43,6
0,3485	11,1	45,7
0,349	6,3	46,5
0,3495	1,5	45,6
0,35	-1,8	43,1
0,3505	-2,4	39,6
0,351	-0,0	36,4
0,3515	4,7	34,3
0,352	10,4	33,9
0,3525	16,1	34,8
0,353	21,5	36,4
0,3535	27,3	38,2
0,354	34,0	39,8
0,3545	41,8	40,9
0,355	50,0	40,7
0,3555	57,3	39,1
0,356	62,9	36,6
0,3565	66,6	33,9
0,357	68,3	31,8
0,3575	68,6	31,0
0,358	67,4	32,0
0,3585	64,7	34,6
0,359	60,0	38,2
0,3595	53,3	41,9
0,36	44,8	44,8
0,3605	35,2	46,1
0,361	25,3	45,6
0,3615	16,2	43,8
0,362	8,5	41,4
0,3625	2,9	39,2
0,363	-0,5	38,2
0,3635	-1,4	38,7
0,364	0,6	40,3
0,3645	5,6	42,1
0,365	12,8	43,6
0,3655	20,9	44,6
0,366	28,6	44,5
0,3665	35,2	43,3
0,367	40,0	41,1
0,3675	43,0	38,7
0,368	44,2	36,8
0,3685	44,3	36,0
0,369	43,6	36,4
0,3695	42,6	37,5
0,37	41,6	38,8
0,3705	40,8	40,1
0,371	40,4	41,1
0,3715	40,5	41,2
0,372	40,8	40,1
0,3725	41,1	38,3
0,373	40,9	36,3
0,3735	40,1	34,8
0,374	38,9	34,3
0,3745	37,1	35,0
0,375	34,9	36,9
0,3755	32,8	39,6
0,376	31,1	42,5
0,3765	30,2	44,8
0,377	29,8	46,2
0,3775	29,8	46,4
0,378	30,0	45,6
0,3785	30,4	43,9
0,379	31,0	41,8
0,3795	31,3	40,5
0,38	30,8	40,9
0,3805	29,4	42,8
0,381	27,0	45,3
0,3815	24,2	47,4
0,382	21,4	49,1
0,3825	19,2	49,9
0,383	17,8	49,4
0,3835	18,1	47,4
0,384	20,0	44,2
0,3845	24,0	40,9
0,385	30,6	38,7
0,3855	39,8	37,9
0,386	50,8	38,6
0,3865	62,0	40,3
0,387	71,3	42,5
0,3875	76,9	44,6
0,388	77,8	45,6
0,3885	73,9	45,3
0,389	66,5	43,9
0,3895	57,0	42,0
0,39	46,5	40,0
0,3905	35,8	38,3
0,391	25,0	37,4
0,3915	14,8	37,9
0,392	5,9	39,8
0,3925	-0,6	42,6
0,393	-3,8	45,3
0,3935	-3,6	47,0
0,394	-0,9	47,3
0,3945	2,9	46,4
0,395	6,2	44,9
0,3955	8,5	43,4
0,396	9,5	42,5
0,3965	9,8	42,8
0,397	10,1	44,3
0,3975	10,8	46,4
0,398	11,7	48,4
0,3985	12,4	49,9
0,399	12,0	50,6
0,3995	10,9	50,1
0,4	10,1	48,3
0,4005	10,9	45,5
0,401	13,9	42,7
0,4015	18,7	40,9
0,402	23,7	40,8
0,4025	27,5	41,8
0,403	29,5	43,5
0,4035	29,8	45,3
0,404	29,0	47,0
0,4045	27,5	48,2
0,405	26,1	48,1
0,4055	25,7	46,8
0,406	26,7	44,6
0,4065	29,1	42,5
0,407	32,4	41,0
0,4075	35,6	40,5
0,408	38,4	41,6
0,4085	40,5	43,9
0,409	42,2	47,1
0,4095	43,3	50,1
0,41	44,2	51,9
0,4105	44,9	52,1
0,411	45,4	51,1
0,4115	45,5	49,0
0,412	44,8	46,5
0,4125	43,2	44,0
0,413	41,2	42,6
0,4135	39,0	42,8
0,414	37,2	44,1
0,4145	36,1	45,9
0,415	35,9	47,6
0,4155	36,5	48,9
0,416	37,8	49,5
0,4165	39,5	49,1
0,417	41,6	47,9
0,4175	44,1	46,1
0,418	46,8	44,2
0,4185	48,9	42,9
0,419	49,4	42,7
0,4195	48,2	43,3
0,42	46,0	44,5
0,4205	43,7	45,8
0,421	42,1	46,7
0,4215	41,1	46,4
0,422	40,3	45,0
0,4225	39,0	42,9
0,423	37,1	40,9
0,4235	34,8	39,5
0,424	32,7	39,1
0,4245	30,9	39,8
0,425	29,8	41,8
0,4255	29,3	44,3
0,426	29,3	46,7
0,4265	29,6	48,5
0,427	29,9	49,1
0,4275	30,3	48,4
0,428	31,3	46,8
0,4285	33,1	44,5
0,429	35,7	42,4
0,4295	39,1	41,5
0,43	43,9	42,4
0,4305	50,1	44,8
0,431	56,5	47,7
0,4315	61,8	50,1
0,432	65,2	51,3
0,4325	66,8	51,1
0,433	66,8	49,7
0,4335	66,1	47,4
0,434	64,9	45,0
0,4345	63,2	42,9
0,435	60,5	41,8
0,4355	56,3	41,7
0,436	50,6	42,6
0,4365	44,1	44,3
0,437	37,7	46,3
0,4375	32,3	47,8
0,438	27,9	47,8
0,4385	24,7	45,9
0,439	22,8	42,9
0,4395	23,0	39,6
0,44	25,2	36,8
0,4405	28,7	35,2
0,441	32,2	35,3
0,4415	34,4	37,0
0,442	35,1	39,9
0,4425	34,5	43,0
0,443	32,9	45,3
0,4435	30,7	46,1
0,444	27,7	45,2
0,4445	23,7	42,9
0,445	18,6	40,1
0,4455	12,8	37,3
0,446	7,1	35,3
0,4465	2,7	34,7
0,447	0,4	35,8
0,4475	0,2	38,0
0,448	1,3	40,2
0,4485	2,5	41,8
0,449	3,3	42,4
0,4495	3,7	41,7
0,45	4,4	39,7
0,4505	6,3	37,0
0,451	9,7	34,2
0,4515	14,4	32,2
0,452	19,5	31,6
0,4525	24,1	32,7
0,453	27,4	34,7
0,4535	29,5	37,1
0,454	30,9	39,1
0,4545	32,8	39,6
0,455	35,6	38,1
0,4555	39,2	34,8
0,456	42,8	31,2
0,4565	46,6	28,3
0,457	50,5	26,8
0,4575	54,7	26,5
0,458	58,0	27,3
0,4585	59,4	29,1
0,459	58,0	31,4
0,4595	54,1	33,8
0,46	48,7	35,5
0,4605	43,1	36,0
0,461	38,1	35,4
0,4615	34,6	34,0
0,462	33,5	31,9
0,4625	35,6	29,8
0,463	40,3	28,7
0,4635	46,2	29,3
0,464	51,8	31,2
0,4645	55,6	33,7
0,465	56,6	35,8
0,4655	54,2	37,3
0,466	49,4	37,8
0,4665	44,0	37,2
0,467	39,7	35,4
0,4675	36,8	33,3
0,468	35,0	31,8
0,4685	33,5	31,6
0,469	32,3	32,7
0,4695	31,3	34,8
0,47	30,8	37,1
0,4705	30,6	39,1
0,471	30,7	40,0
0,4715	31,5	39,3
0,472	33,3	37,1
0,4725	36,1	34,0
0,473	40,1	31,0
0,4735	44,8	28,7
0,474	48,9	27,8
0,4745	51,1	28,6
0,475	51,0	30,9
0,4755	48,7	34,2
0,476	44,7	37,6
0,4765	40,0	40,1
0,477	35,5	41,2
0,4775	32,5	40,9
0,478	32,2	39,7
0,4785	34,8	37,8
0,479	38,8	35,6
0,4795	42,5	34,1
0,48	44,3	34,0
0,4805	44,2	35,3
0,481	43,5	37,4
0,4815	43,6	39,6
0,482	45,3	41,3
0,4825	48,1	42,3
0,483	50,9	42,2
0,4835	53,0	41,3
0,484	53,1	39,6
0,4845	50,6	37,9
0,485	46,0	36,9
0,4855	40,6	37,1
0,486	35,5	38,5
0,4865	30,6	40,8
0,487	25,3	43,6
0,4875	19,2	46,3
0,488	12,7	47,8
0,4885	6,6	47,2
0,489	1,9	44,9
0,4895	-0,3	41,8
0,49	0,5	39,0
0,4905	4,0	37,0
0,491	9,3	36,4
0,4915	15,3	37,2
0,492	21,0	39,3
0,4925	25,1	41,9
0,493	26,9	44,4
0,4935	26,7	46,0
0,494	25,6	46,4
0,4945	25,0	45,8
0,495	25,6	44,4
0,4955	27,6	42,5
0,496	30,5	41,2
0,4965	33,3	41,6
0,497	35,9	43,9
0,4975	38,8	47,1
0,498	42,1	50,0
0,4985	45,8	52,0
0,499	49,1	52,8
0,4995	51,4	52,6
0,5	52,2	51,7
0,5005	51,5	50,4
0,501	49,7	48,8
0,5015	47,4	47,6
0,502	45,3	47,2
0,5025	43,7	47,7
0,503	42,3	49,1
0,5035	40,7	51,0
0,504	38,3	53,1
0,5045	35,5	54,7
0,505	32,9	55,1
0,5055	31,4	54,2
0,506	31,0	52,3
0,5065	31,1	50,1
0,507	31,2	48,3
0,5075	30,8	47,6
0,508	29,8	48,3
0,5085	28,4	50,3
0,509	27,4	53,1
0,5095	27,4	55,8
0,51	28,8	57,4
0,5105	31,8	57,4
0,511	36,9	56,0
0,5115	44,9	53,7
0,512	55,9	51,2
0,5125	68,3	49,1
0,513	79,0	48,6
0,5135	85,8	49,8
0,514	88,1	52,4
0,5145	86,9	55,3
0,515	83,7	57,8
0,5155	79,6	59,2
0,516	75,5	59,2
0,5165	71,5	57,8
0,517	67,3	55,3
0,5175	62,5	52,2
0,518	57,2	49,6
0,5185	51,3	48,1
0,519	44,9	48,2
0,5195	38,2	49,5
0,52	32,2	51,8
0,5205	27,5	54,5
0,521	24,4	56,3
0,5215	22,6	56,0
0,522	21,3	53,7
0,5225	20,3	50,1
0,523	19,6	46,6
0,5235	19,5	44,0
0,524	20,4	42,8
0,5245	22,4	43,2
0,525	25,2	45,1
0,5255	28,1	48,2
0,526	30,4	51,5
0,5265	31,3	53,8
0,527	30,6	54,2
0,5275	29,0	52,9
0,528	27,7	50,5
0,5285	27,4	47,6
0,529	28,6	44,6
0,5295	30,9	42,5
0,53	33,3	42,3
0,5305	34,7	43,8
0,531	35,0	46,4
0,5315	34,7	49,1
0,532	33,9	51,1
0,5325	32,6	52,0
0,533	30,5	51,5
0,5335	28,0	49,5
0,534	25,5	46,3
0,5345	23,5	43,2
0,535	22,3	41,0
0,5355	22,0	40,4
0,536	22,8	41,2
0,5365	24,4	42,9
0,537	26,7	45,2
0,5375	29,3	47,1
0,538	31,9	47,7
0,5385	34,7	46,3
0,539	37,8	43,4
0,5395	41,3	40,3
0,54	45,0	37,8
0,5405	48,3	36,5
0,541	50,8	36,8
0,5415	52,3	38,7
0,542	52,8	41,5
0,5425	52,5	44,3
0,543	51,6	46,3
0,5435	49,5	46,9
0,544	45,8	46,2
0,5445	40,7	44,4
0,545	34,6	42,0
0,5455	28,4	39,2
0,546	22,9	36,7
0,5465	18,7	35,8
0,547	16,1	36,7
0,5475	15,4	38,7
0,548	16,3	40,8
0,5485	18,1	42,5
0,549	20,1	43,4
0,5495	22,0	43,6
0,55	23,8	42,5
0,5505	25,8	40,3
0,551	27,6	37,8
0,5515	28,8	35,7
0,552	28,6	34,8
0,5525	26,8	35,3
0,553	24,1	37,0
0,5535	21,5	39,6
0,554	20,8	42,0
0,5545	22,7	43,2
0,555	27,1	42,0
0,5555	32,5	39,0
0,556	37,3	35,1
0,5565	40,3	31,6
0,557	41,6	29,2
0,5575	41,5	28,1
0,558	40,6	28,5
0,5585	39,1	30,4
0,559	37,3	33,3
0,5595	35,5	36,5
0,56	34,1	38,9
0,5605	33,0	40,1
0,561	32,3	39,9
0,5615	31,9	38,8
0,562	31,6	37,0
0,5625	31,2	35,2
0,563	30,6	34,4
0,5635	29,6	35,4
0,564	28,3	37,8
0,5645	26,9	40,7
0,565	26,1	43,3
0,5655	26,7	45,0
0,566	28,7	45,3
0,5665	31,6	44,1
0,567	34,1	41,7
0,5675	35,4	38,8
0,568	35,3	36,4
0,5685	33,7	35,2
0,569	31,2	35,3
0,5695	28,3	36,5
0,57	25,3	38,4
0,5705	22,6	40,4
0,571	20,5	41,8
0,5715	19,5	41,4
0,572	20,2	39,3
0,5725	22,7	36,3
0,573	26,5	33,3
0,5735	30,9	31,0
0,574	34,8	29,9
0,5745	38,2	30,3
0,575	41,2	32,2
0,5755	43,7	35,1
0,576	45,3	38,3
0,5765	45,7	40,7
0,577	44,6	41,6
0,5775	42,4	40,8
0,578	39,8	39,0
0,5785	37,7	36,5
0,579	36,8	33,9
0,5795	37,0	32,3
0,58	36,9	32,4
0,5805	34,6	34,1
0,581	29,2	36,5
0,5815	21,3	39,0
0,582	12,6	40,8
0,5825	5,1	41,7
0,583	0,4	41,1
0,5835	-1,0	39,1
0,584	-0,3	36,3
0,5845	1,5	33,5
0,585	3,3	31,8
0,5855	5,0	31,3
0,586	6,4	31,9
0,5865	7,8	33,0
0,587	9,8	34,2
0,5875	12,8	34,9
0,588	16,8	34,7
0,5885	21,2	33,0
0,589	25,7	30,3
0,5895	29,6	27,1
0,59	32,7	24,1
0,5905	35,0	21,8
0,591	36,9	20,9
0,5915	38,6	21,6
0,592	40,2	23,8
0,5925	41,6	26,9
0,593	42,9	29,9
0,5935	43,9	31,9
0,594	44,8	32,3
0,5945	46,8	31,3
0,595	51,8	29,0
0,5955	59,9	26,2
0,596	69,1	23,4
0,5965	76,6	21,9
0,597	80,8	22,1
0,5975	81,5	23,4
0,598	79,6	24,9
0,5985	76,1	26,0
0,599	71,9	26,4
0,5995	67,6	25,3
0,6	63,4	22,5
0,6005	59,2	18,3
0,601	54,3	14,1
0,6015	48,3	11,3
0,602	41,7	10,4
0,6025	35,5	11,3
0,603	30,6	13,1
0,6035	27,1	15,3
0,604	24,6	17,2
0,6045	21,9	18,1
0,605	18,0	17,2
0,6055	12,5	14,7
0,606	6,4	11,5
0,6065	0,7	8,5
0,607	-3,8	6,7
0,6075	-7,3	6,6
0,608	-9,4	7,9
0,6085	-9,8	10,3
0,609	-8,1	12,9
0,6095	-4,4	15,3
0,61	0,3	16,7
0,6105	4,9	16,8
0,611	9,0	16,0
0,6115	12,7	14,5
0,612	16,2	12,7
0,6125	19,7	10,8
0,613	23,4	9,7
0,6135	27,6	9,9
0,614	32,0	11,3
0,6145	36,2	13,1
0,615	39,4	14,6
0,6155	41,5	15,4
0,616	42,4	15,1
0,6165	42,3	13,4
0,617	41,6	10,4
0,6175	40,6	7,1
0,618	39,7	4,3
0,6185	39,0	3,1
0,619	38,8	3,3
0,6195	39,3	4,4
0,62	40,4	6,1
0,6205	41,7	7,7
0,621	42,2	8,2
0,6215	41,5	7,0
0,622	40,0	4,2
0,6225	38,5	0,7
0,623	37,3	-2,3
0,6235	36,0	-4,2
0,624	34,5	-4,6
0,6245	32,3	-3,5
0,625	29,8	-1,0
0,6255	27,2	2,6
0,626	24,8	6,5
0,6265	22,8	9,6
0,627	21,4	11,1
0,6275	20,8	10,7
0,628	21,2	8,7
0,6285	22,4	5,7
0,629	24,2	2,6
0,6295	26,5	0,6
0,63	28,9	0,6
0,6305	31,3	2,5
0,631	33,6	5,3
0,6315	35,8	7,9
0,632	38,0	9,8
0,6325	40,9	11,0
0,633	45,3	10,9
0,6335	50,6	9,3
0,634	55,7	6,5
0,6345	59,0	3,7
0,635	59,6	2,2
0,6355	57,1	2,4
0,636	52,0	4,1
0,6365	45,4	6,4
0,637	38,5	8,8
0,6375	32,3	10,7
0,638	27,2	11,4
0,6385	23,4	10,6
0,639	20,7	8,5
0,6395	18,7	5,9
0,64	16,8	3,7
0,6405	14,5	2,4
0,641	11,5	2,3
0,6415	7,7	3,5
0,642	3,6	6,0
0,6425	0,0	9,2
0,643	-2,6	12,3
0,6435	-4,0	14,3
0,644	-4,2	14,7
0,6445	-3,3	13,8
0,645	-1,3	12,0
0,6455	2,0	10,2
0,646	6,2	9,3
0,6465	10,8	9,6
0,647	15,4	11,3
0,6475	19,6	13,6
0,648	23,1	15,7
0,6485	26,1	17,1
0,649	29,0	17,5
0,6495	31,9	17,0
0,65	35,0	15,5
0,6505	38,1	13,2
0,651	40,8	10,5
0,6515	42,8	8,4
0,652	44,1	7,6
0,6525	44,7	8,6
0,653	44,5	11,1
0,6535	43,8	14,6
0,654	43,2	18,2
0,6545	43,4	20,5
0,655	44,4	20,8
0,6555	46,2	19,2
0,656	49,3	16,3
0,6565	54,3	13,3
0,657	60,9	10,9
0,6575	67,4	9,9
0,658	72,2	10,6
0,6585	74,5	12,9
0,659	74,6	16,3
0,6595	73,0	19,9
0,66	70,2	22,3
0,6605	66,5	23,0
0,661	62,3	22,3
0,6615	57,5	20,6
0,662	52,3	18,7
0,6625	47,1	17,4
0,663	42,1	17,4
0,6635	37,7	19,0
0,664	33,9	21,6
0,6645	30,5	24,2
0,665	26,4	26,2
0,6655	21,0	27,2
0,666	14,7	26,9
0,6665	9,0	25,3
0,667	5,9	22,7
0,6675	5,9	19,7
0,668	8,2	17,4
0,6685	11,5	16,4
0,669	15,1	17,1
0,6695	18,5	19,3
0,67	21,6	22,7
0,6705	24,6	26,3
0,671	27,6	28,7
0,6715	30,4	29,1
0,672	32,7	27,4
0,6725	34,1	24,4
0,673	35,1	21,1
0,6735	36,1	18,3
0,674	37,4	16,3
0,6745	38,8	15,8
0,675	40,1	16,7
0,6755	41,4	18,9
0,676	42,8	21,8
0,6765	44,3	24,3
0,677	45,7	25,3
0,6775	46,4	24,8
0,678	46,0	23,2
0,6785	44,8	21,0
0,679	43,4	19,0
0,6795	43,4	18,0
0,68	45,5	18,5
0,6805	49,2	20,4
0,681	53,1	23,0
0,6815	55,9	25,6
0,682	56,9	27,7
0,6825	56,1	29,0
0,683	54,2	29,2
0,6835	52,1	28,1
0,684	50,2	26,1
0,6845	48,1	23,9
0,685	45,2	22,5
0,6855	41,3	22,3
0,686	37,0	23,4
0,6865	33,0	25,4
0,687	29,8	27,9
0,6875	27,4	30,0
0,688	25,8	30,7
0,6885	25,1	29,7
0,689	25,4	27,3
0,6895	26,1	24,6
0,69	26,5	22,1
0,6905	26,4	20,4
0,691	25,8	19,8
0,6915	24,8	20,7
0,692	23,7	22,9
0,6925	22,8	26,1
0,693	22,7	29,2
0,6935	23,5	31,0
0,694	25,2	30,9
0,6945	27,3	29,5
0,695	28,8	27,2
0,6955	28,7	24,6
0,696	26,7	22,6
0,6965	23,6	22,4
0,697	20,2	24,2
0,6975	17,0	27,2
0,698	14,0	30,3
0,6985	10,8	32,9
0,699	7,1	34,5
0,6995	3,1	34,5
0,7	-0,3	32,7
0,7005	-1,7	29,5
0,701	0,3	26,1
0,7015	5,2	23,5
0,702	11,6	22,7
0,7025	18,0	23,5
0,703	24,1	25,7
0,7035	29,9	28,7
0,704	35,2	32,1
0,7045	39,6	34,7
0,705	42,3	35,8
0,7055	43,1	35,4
0,706	42,3	34,1
0,7065	40,4	32,4
0,707	38,1	30,7
0,7075	36,2	29,4
0,708	35,8	29,3
0,7085	37,6	30,6
0,709	41,4	32,9
0,7095	46,3	35,4
0,71	50,9	37,2
0,7105	54,4	37,9
0,711	55,9	37,8
0,7115	55,3	37,0
0,712	53,6	35,9
0,7125	52,6	34,9
0,713	54,2	34,9
0,7135	58,4	36,4
0,714	63,7	39,1
0,7145	68,1	42,0
0,715	70,4	44,5
0,7155	70,5	45,9
0,716	68,6	46,2
0,7165	65,3	44,9
0,717	61,1	42,3
0,7175	56,7	39,3
0,718	52,5	36,8
0,7185	48,4	35,3
0,719	44,0	35,0
0,7195	38,6	35,9
0,72	32,4	37,9
0,7205	26,1	40,4
0,721	20,5	42,5
0,7215	16,5	43,2
0,722	14,2	41,9
0,7225	13,2	39,3
0,723	13,0	36,4
0,7235	13,2	34,3
0,724	13,0	33,5
0,7245	12,2	34,2
0,725	10,8	36,0
0,7255	10,0	38,5
0,726	10,7	40,9
0,7265	13,1	42,5
0,727	16,7	42,8
0,7275	20,7	41,9
0,728	24,2	40,1
0,7285	26,8	37,9
0,729	28,6	35,9
0,7295	30,0	35,1
0,73	31,6	36,0
0,7305	33,5	38,6
0,731	35,3	41,8
0,7315	36,3	44,6
0,732	36,3	46,5
0,7325	35,4	46,8
0,733	33,9	45,6
0,7335	32,4	43,0
0,734	31,3	40,0
0,7345	31,2	37,5
0,735	31,8	36,3
0,7355	32,4	36,4
0,736	31,5	37,8
0,7365	28,4	40,2
0,737	23,5	43,1
0,7375	18,2	45,4
0,738	13,9	46,1
0,7385	11,5	44,8
0,739	11,1	42,0
0,7395	12,6	38,6
0,74	15,7	35,5
0,7405	20,4	33,3
0,741	27,0	32,7
0,7415	35,7	33,9
0,742	45,9	36,6
0,7425	56,1	39,9
0,743	64,3	42,5
0,7435	69,2	43,6
0,744	71,2	43,1
0,7445	71,4	41,5
0,745	70,7	39,3
0,7455	69,2	37,0
0,746	66,8	35,6
0,7465	63,4	35,9
0,747	59,4	37,9
0,7475	55,4	40,9
0,748	51,5	43,8
0,7485	48,0	45,6
0,749	45,3	46,1
0,7495	43,0	45,0
0,75	41,0	42,6
0,7505	38,9	39,3
0,751	37,0	36,3
0,7515	35,6	34,3
0,752	35,1	33,8
0,7525	35,6	34,5
0,753	37,0	36,0
0,7535	38,9	38,0
0,754	40,8	40,4
0,7545	42,0	42,5
0,755	42,1	43,5
0,7555	41,5	43,1
0,756	41,0	41,4
0,7565	41,1	39,1
0,757	41,7	37,1
0,7575	42,4	36,0
0,758	43,0	36,4
0,7585	43,2	38,4
0,759	42,9	41,3
0,7595	42,2	44,3
0,76	40,9	46,4
0,7605	39,1	47,2
0,761	37,2	46,7
0,7615	35,8	45,1
0,762	35,5	42,8
0,7625	36,6	40,6
0,763	38,3	39,5
0,7635	39,9	40,3
0,764	40,7	42,7
0,7645	40,8	45,5
0,765	40,3	47,8
0,7655	39,4	48,9
0,766	38,7	48,6
0,7665	38,1	46,6
0,767	37,7	43,5
0,7675	37,2	40,2
0,768	36,9	37,8
0,7685	37,0	37,2
0,769	37,7	38,3
0,7695	38,4	40,6
0,77	38,9	43,8
0,7705	39,1	47,0
0,771	39,0	49,3
0,7715	38,6	49,5
0,772	37,9	47,4
0,7725	36,9	44,3
0,773	36,0	41,6
0,7735	35,1	39,9
0,774	34,3	39,6
0,7745	33,7	40,7
0,775	33,3	43,1
0,7755	33,0	46,3
0,776	32,7	49,2
0,7765	32,7	51,0
0,777	33,6	51,2
0,7775	36,3	50,0
0,778	40,4	48,2
0,7785	44,5	46,3
0,779	47,3	44,7
0,7795	48,2	44,3
0,78	47,1	45,7
0,7805	45,0	48,4
0,781	42,8	51,3
0,7815	41,3	53,4
0,782	40,6	54,5
0,7825	39,9	54,6
0,783	38,4	53,6
0,7835	35,9	51,5
0,784	32,6	48,9
0,7845	29,1	46,5
0,785	25,4	45,5
0,7855	21,8	46,3
0,786	18,5	48,4
0,7865	16,1	51,2
0,787	15,0	53,8
0,7875	15,0	55,8
0,788	15,7	56,4
0,7885	16,6	55,3
0,789	17,5	52,9
0,7895	18,3	50,0
0,79	18,7	47,5
0,7905	18,8	46,0
0,791	18,9	45,8
0,7915	19,3	46,9
0,792	20,1	49,3
0,7925	21,3	52,3
0,793	23,0	54,9
0,7935	25,0	56,3
0,794	27,1	56,3
0,7945	28,8	55,2
0,795	29,6	53,7
0,7955	29,7	52,1
0,796	29,5	50,9
0,7965	29,8	50,8
0,797	30,8	51,8
0,7975	32,1	53,6
0,798	33,5	55,6
0,7985	34,2	57,0
0,799	33,8	57,5
0,7995	32,2	56,8
0,8	30,1	55,0
0,8005	28,0	52,5
0,801	26,2	50,2
0,8015	24,9	48,8
0,802	23,9	48,8
0,8025	22,8	49,8
0,803	21,5	51,4
0,8035	20,4	53,0
0,804	20,2	54,4
0,8045	21,6	54,9
0,805	24,7	54,1
0,8055	28,2	52,0
0,806	30,8	49,3
0,8065	31,4	47,0
0,807	30,6	45,6
0,8075	28,9	45,7
0,808	27,1	47,2
0,8085	24,9	49,8
0,809	22,3	52,7
0,8095	19,5	55,1
0,81	17,5	56,3
0,8105	17,6	55,9
0,811	20,8	54,3
0,8115	27,4	52,0
0,812	36,7	49,1
0,8125	46,8	46,3
0,813	55,3	44,8
0,8135	60,4	45,5
0,814	61,9	47,9
0,8145	60,5	51,1
0,815	57,1	53,8
0,8155	52,1	55,3
0,816	45,3	55,0
0,8165	36,5	52,8
0,817	25,8	49,3
0,8175	13,8	45,6
0,818	2,0	42,6
0,8185	-8,0	40,8
0,819	-15,1	40,6
0,8195	-19,0	41,8
0,82	-20,5	44,2
0,8205	-19,7	47,0
0,821	-17,1	49,1
0,8215	-13,3	49,5
0,822	-9,3	48,2
0,8225	-5,9	45,8
0,823	-2,9	43,4
0,8235	0,0	41,6
0,824	3,3	40,8
0,8245	7,4	41,2
0,825	12,0	42,8
0,8255	16,8	45,6
0,826	21,7	48,6
0,8265	25,8	50,6
0,827	28,2	51,0
0,8275	27,6	50,0
0,828	24,0	47,9
0,8285	18,8	45,2
0,829	14,3	42,4
0,8295	12,3	40,7
0,83	12,8	40,7
0,8305	14,8	42,5
0,831	17,8	44,9
0,8315	22,8	46,9
0,832	30,9	47,6
0,8325	41,7	47,0
0,833	53,3	45,5
0,8335	63,8	43,3
0,834	71,6	40,8
0,8345	75,3	38,6
0,835	74,9	37,5
0,8355	71,4	37,9
0,836	66,8	39,4
0,8365	62,5	41,6
0,837	58,4	44,0
0,8375	54,0	45,9
0,838	48,7	46,2
0,8385	43,1	44,3
0,839	37,8	41,0
0,8395	33,2	37,8
0,84	29,4	35,5
0,8405	26,0	34,4
0,841	22,9	34,8
0,8415	20,6	36,7
0,842	19,2	39,5
0,8425	18,9	42,3
0,843	19,0	44,3
0,8435	18,4	44,6
0,844	16,2	43,5
0,8445	12,1	41,6
0,845	7,0	39,2
0,8455	2,1	36,8
0,846	-0,7	35,6
0,8465	-0,3	36,1
0,847	3,3	38,2
0,8475	8,3	41,1
0,848	12,8	44,2
0,8485	16,1	46,7
0,849	18,0	48,2
0,8495	19,1	48,3
0,85	19,6	47,1
0,8505	19,7	44,9
0,851	19,7	42,6
0,8515	19,9	40,9
0,852	20,4	40,4
0,8525	20,7	40,9
0,853	20,9	41,9
0,8535	21,2	43,4
0,854	22,2	45,0
0,8545	23,9	45,8
0,855	26,3	44,9
0,8555	28,8	42,7
0,856	30,4	40,1
0,8565	30,7	38,0
0,857	29,5	36,8
0,8575	27,4	36,9
0,858	25,0	38,5
0,8585	22,7	41,4
0,859	20,6	45,1
0,8595	19,0	48,3
0,86	17,9	50,1
0,8605	17,3	50,0
0,861	17,2	48,3
0,8615	17,3	45,6
0,862	17,7	42,8
0,8625	18,7	40,5
0,863	20,7	39,8
0,8635	23,3	40,9
0,864	25,7	43,7
0,8645	27,6	47,1
0,865	29,2	50,1
0,8655	31,5	52,2
0,866	35,2	52,5
0,8665	40,2	51,2
0,867	45,7	48,6
0,8675	50,4	45,8
0,868	53,8	43,4
0,8685	56,2	42,3
0,869	58,5	42,6
0,8695	60,5	44,1
0,87	61,6	46,6
0,8705	61,0	49,3
0,871	58,8	51,3
0,8715	55,6	51,5
0,872	52,3	49,7
0,8725	49,3	46,8
0,873	46,9	43,9
0,8735	44,8	41,9
0,874	43,0	41,2
0,8745	41,3	41,7
0,875	39,2	43,6
0,8755	36,2	46,5
0,876	32,0	49,3
0,8765	27,3	51,1
0,877	23,2	51,4
0,8775	20,1	50,6
0,878	18,3	49,1
0,8785	17,5	47,1
0,879	17,6	45,2
0,8795	18,3	44,3
0,88	19,2	45,2
0,8805	19,7	47,3
0,881	19,2	49,7
0,8815	18,0	51,4
0,882	17,3	51,9
0,8825	18,3	51,1
0,883	21,9	49,4
0,8835	27,6	47,1
0,884	33,4	44,7
0,8845	37,4	42,7
0,885	38,8	41,8
0,8855	37,9	42,3
0,886	35,8	43,7
0,8865	33,4	45,7
0,887	31,0	47,8
0,8875	28,6	49,3
0,888	26,1	49,5
0,8885	23,3	48,0
0,889	20,3	45,4
0,8895	17,4	42,6
0,89	14,8	40,3
0,8905	13,0	38,9
0,891	12,2	38,7
0,8915	12,4	39,8
0,892	13,1	42,1
0,8925	13,9	44,8
0,893	14,5	46,8
0,8935	14,8	47,7
0,894	14,8	47,3
0,8945	14,5	45,8
0,895	14,0	43,8
0,8955	13,8	41,6
0,896	14,3	39,9
0,8965	15,9	39,7
0,897	18,6	41,1
0,8975	22,0	43,4
0,898	25,5	46,0
0,8985	28,2	48,3
0,899	29,5	50,2
0,8995	29,6	51,1
0,9	28,9	50,7
0,9005	27,9	48,8
0,901	26,7	46,3
0,9015	25,3	43,9
0,902	24,1	42,6
0,9025	22,7	42,5
0,903	21,0	43,6
0,9035	18,9	45,7
0,904	16,4	48,2
0,9045	13,9	50,0
0,905	12,1	50,2
0,9055	11,4	48,7
0,906	11,9	46,2
0,9065	13,3	43,8
0,907	15,3	42,1
0,9075	17,8	41,6
0,908	20,5	42,4
0,9085	23,4	44,3
0,909	26,1	46,8
0,9095	28,2	48,8
0,91	29,2	49,5
0,9105	28,4	48,6
0,911	26,0	46,3
0,9115	22,3	43,2
0,912	18,3	40,0
0,9125	14,4	37,2
0,913	11,4	35,9
0,9135	9,9	36,6
0,914	10,6	38,8
0,9145	13,2	41,6
0,915	16,8	44,4
0,9155	20,2	46,7
0,916	22,4	47,6
0,9165	23,4	47,0
0,917	23,5	45,2
0,9175	23,2	42,8
0,918	22,9	41,0
0,9185	22,6	40,3
0,919	22,4	40,7
0,9195	23,0	41,8
0,92	25,1	43,3
0,9205	29,8	44,8
0,921	37,5	45,6
0,9215	47,2	44,8
0,922	56,2	42,8
0,9225	61,9	40,5
0,923	63,3	38,8
0,9235	60,6	38,0
0,924	55,4	37,9
0,9245	49,4	38,3
0,925	44,3	39,2
0,9255	39,9	40,5
0,926	35,4	41,8
0,9265	29,2	42,7
0,927	21,0	43,0
0,9275	11,5	42,7
0,928	2,1	41,8
0,9285	-5,5	40,3
0,929	-10,3	38,5
0,9295	-11,8	37,4
0,93	-10,8	37,9
0,9305	-8,3	40,1
0,931	-4,9	42,9
0,9315	-1,1	45,4
0,932	3,1	46,8
0,9325	7,9	47,1
0,933	13,6	46,0
0,9335	19,7	43,8
0,934	25,2	40,9
0,9345	28,6	38,3
0,935	29,3	36,8
0,9355	28,3	36,9
0,936	27,2	38,4
0,9365	27,0	40,9
0,937	28,2	44,0
0,9375	30,4	46,7
0,938	32,9	48,1
0,9385	35,2	47,4
0,939	36,5	44,9
0,9395	36,6	41,6
0,94	35,0	38,8
0,9405	31,9	37,0
0,941	27,8	36,9
0,9415	23,7	38,5
0,942	20,5	41,5
0,9425	18,9	44,9
0,943	18,5	47,4
0,9435	18,8	48,3
0,944	19,1	47,4
0,9445	19,4	45,4
0,945	19,2	42,7
0,9455	17,9	40,0
0,946	15,2	38,0
0,9465	11,6	37,6
0,947	8,0	38,6
0,9475	5,5	40,3
0,948	4,4	42,1
0,9485	4,5	43,5
0,949	5,8	44,0
0,9495	8,1	43,4
0,95	11,5	41,5
0,9505	16,4	38,6
0,951	23,1	35,5
0,9515	30,8	33,3
0,952	37,8	32,7
0,9525	42,5	33,7
0,953	44,2	35,7
0,9535	43,0	38,1
0,954	39,7	40,3
0,9545	35,5	41,5
0,955	31,3	41,3
0,9555	27,9	39,7
0,956	25,4	37,3
0,9565	24,0	34,9
0,957	23,2	33,2
0,9575	22,7	32,6
0,958	22,3	33,3
0,9585	22,0	35,2
0,959	21,6	37,6
0,9595	20,6	39,8
0,96	18,7	40,8
0,9605	15,8	40,5
0,961	12,5	39,1
0,9615	9,6	37,1
0,962	8,2	34,9
0,9625	8,2	33,2
0,963	8,7	32,9
0,9635	8,6	34,4
0,964	7,3	37,3
0,9645	5,5	40,4
0,965	4,2	43,1
0,9655	4,3	44,5
0,966	6,2	44,5
0,9665	9,9	43,0
0,967	14,6	40,4
0,9675	19,3	37,5
0,968	23,1	35,2
0,9685	25,7	34,2
0,969	27,4	34,9
0,9695	28,6	37,2
0,97	29,8	40,5
0,9705	31,0	44,1
0,971	32,3	46,6
0,9715	33,3	46,8
0,972	33,8	44,4
0,9725	33,6	40,7
0,973	32,6	37,2
0,9735	31,0	34,9
0,974	29,3	34,2
0,9745	27,8	35,3
0,975	27,0	37,9
0,9755	26,6	41,3
0,976	26,2	44,3
0,9765	25,2	46,4
0,977	23,4	47,0
0,9775	21,0	46,1
0,978	18,2	44,2
0,9785	16,1	41,5
0,979	16,9	38,9
0,9795	21,9	37,2
0,98	30,4	37,3
0,9805	39,4	39,0
0,981	46,3	41,4
0,9815	50,0	43,8
0,982	50,8	45,2
0,9825	49,8	45,4
0,983	47,8	44,4
0,9835	45,9	42,4
0,984	44,7	40,0
0,9845	44,7	38,0
0,985	45,8	37,1
0,9855	47,1	37,4
0,986	47,4	38,6
0,9865	46,3	40,3
0,987	43,8	42,2
0,9875	40,4	43,9
0,988	36,2	44,4
0,9885	31,3	43,4
0,989	26,3	41,3
0,9895	21,9	38,9
0,99	18,8	36,6
0,9905	16,8	35,0
0,991	15,5	34,7
0,9915	14,8	35,8
0,992	14,3	38,2
0,9925	14,0	41,0
0,993	13,7	43,3
0,9935	13,8	44,2
0,994	14,8	43,8
0,9945	16,6	42,5
0,995	18,7	40,6
0,9955	20,8	38,6
0,996	22,5	37,2
0,9965	23,8	37,3
0,997	24,8	39,0
0,9975	25,6	41,7
0,998	26,1	44,6
0,9985	26,4	47,0
0,999	26,7	48,4
0,9995	27,1	48,3
1	27,5	46,6
1,0005	27,9	43,9
1,001	28,3	41,2
1,0015	28,8	39,5
1,002	29,3	39,1
1,0025	30,0	39,8
1,003	30,7	41,1
1,0035	31,4	42,6
1,004	32,2	44,0
1,0045	33,0	44,4
1,005	33,9	43,3
1,0055	34,6	40,7
1,006	34,4	37,4
1,0065	33,0	34,3
1,007	30,6	31,9
1,0075	27,8	31,0
1,008	25,5	31,9
1,0085	24,3	34,4
1,009	24,4	37,5
1,0095	25,6	40,2
1,01	27,1	41,5
1,0105	28,5	41,3
1,011	29,4	39,7
1,0115	29,8	37,2
1,012	30,2	34,3
1,0125	31,3	31,9
1,013	33,7	31,1
1,0135	37,3	32,3
1,014	41,2	35,2
1,0145	44,7	38,6
1,015	47,0	41,5
1,0155	47,7	43,4
1,016	46,6	43,9
1,0165	44,3	43,4
1,017	41,6	42,3
1,0175	39,2	40,8
1,018	37,1	39,8
1,0185	35,6	39,2
1,019	35,4	39,1
1,0195	36,9	39,7
1,02	39,4	40,8
1,0205	41,0	42,4
1,021	39,6	43,4
1,0215	34,2	42,9
1,022	26,6	40,7
1,0225	20,5	37,5
1,023	18,5	34,3
1,0235	20,2	31,5
1,024	22,7	29,9
1,0245	23,8	29,7
1,025	22,9	31,3
1,0255	21,3	34,3
1,026	19,9	37,7
1,0265	19,2	40,3
1,027	19,0	41,3
1,0275	18,7	40,8
1,028	17,9	39,2
1,0285	16,5	37,1
1,029	14,3	35,0
1,0295	11,2	34,0
1,03	7,8	34,7
1,0305	5,0	37,0
1,031	3,5	40,0
1,0315	3,4	42,8
1,032	4,1	44,9
1,0325	5,0	45,8
1,033	5,9	45,2
1,0335	6,5	43,4
1,034	6,4	40,8
1,0345	5,5	38,2
1,035	4,3	36,5
1,0355	3,7	36,4
1,036	4,3	37,7
1,0365	5,9	39,8
1,037	8,0	42,2
1,0375	10,3	44,2
1,038	13,2	44,6
1,0385	16,9	43,2
1,039	21,2	40,5
1,0395	25,4	37,6
1,04	29,1	35,2
1,0405	31,8	33,7
1,041	33,3	33,6
1,0415	33,7	35,0
1,042	33,3	37,6
1,0425	33,0	40,7
1,043	33,4	43,3
1,0435	34,2	44,4
1,044	34,7	44,0
1,0445	34,1	42,5
1,045	32,3	40,3
1,0455	30,0	37,8
1,046	28,1	36,0
1,0465	26,9	35,8
1,047	26,2	37,4
1,0475	25,5	40,1
1,048	24,2	42,7
1,0485	22,0	44,7
1,049	19,1	45,9
1,0495	16,1	46,2
1,05	13,7	45,2
1,0505	12,3	42,9
1,051	12,3	39,8
1,0515	13,5	36,9
1,052	16,0	35,5
1,0525	19,2	36,0
1,053	22,6	38,2
1,0535	25,8	41,5
1,054	28,7	44,8
1,0545	31,4	46,6
1,055	34,1	46,1
1,0555	36,5	43,7
1,056	38,5	40,7
1,0565	39,8	37,9
1,057	40,9	36,0
1,0575	41,8	35,2
1,058	42,3	35,5
1,0585	42,3	37,1
1,059	41,8	39,5
1,0595	41,0	41,7
1,06	40,0	43,0
1,0605	38,0	42,8
1,061	34,4	41,4
1,0615	28,9	39,4
1,062	22,1	37,3
1,0625	15,7	35,6
1,063	10,7	35,1
1,0635	7,8	36,3
1,064	7,1	38,5
1,0645	8,3	40,9
1,065	11,5	43,0
1,0655	16,0	44,3
1,066	21,3	44,2
1,0665	26,0	42,3
1,067	29,5	39,2
1,0675	31,2	35,7
1,068	31,4	32,8
1,0685	31,2	31,1
1,069	31,5	31,0
1,0695	32,8	32,0
1,07	34,8	33,9
1,0705	36,7	36,1
1,071	38,0	37,8
1,0715	38,8	38,2
1,072	39,3	36,8
1,0725	39,4	34,2
1,073	38,8	31,8
1,0735	37,6	30,0
1,074	36,7	29,5
1,0745	36,6	30,2
1,075	36,8	32,2
1,0755	36,9	34,8
1,076	36,2	37,3
1,0765	35,2	38,9
1,077	34,5	39,0
1,0775	34,4	37,8
1,078	34,8	35,7
1,0785	35,1	33,2
1,079	34,7	30,7
1,0795	33,9	29,2
1,08	33,1	29,2
1,0805	32,4	30,7
1,081	31,9	32,9
1,0815	31,3	34,9
1,082	30,4	36,0
1,0825	29,7	35,9
1,083	29,6	34,5
1,0835	30,8	32,0
1,084	33,4	29,2
1,0845	37,1	26,6
1,085	40,5	24,8
1,0855	42,5	24,4
1,086	43,1	25,3
1,0865	43,0	27,4
1,087	42,9	30,0
1,0875	42,1	32,1
1,088	39,2	32,5
1,0885	33,6	31,1
1,089	25,8	28,5
1,0895	16,6	25,8
1,09	6,5	23,7
1,0905	-4,0	22,4
1,091	-14,1	22,4
1,0915	-22,7	23,8
1,092	-29,0	26,1
1,0925	-32,8	28,7
1,093	-33,9	30,4
1,0935	-32,6	31,0
1,094	-29,4	30,4
1,0945	-25,6	28,9
1,095	-22,1	26,9
1,0955	-19,1	24,8
1,096	-15,8	23,2
1,0965	-11,4	22,8
1,097	-5,8	24,1
1,0975	0,5	26,6
1,098	6,4	29,8
1,0985	11,8	33,0
1,099	16,6	35,1
1,0995	20,9	35,4
1,1	24,6	33,8
1,1005	27,7	30,9
1,101	30,6	27,8
1,1015	33,3	25,8
1,102	35,6	25,8
1,1025	36,9	27,5
1,103	37,3	29,8
1,1035	37,5	32,1
1,104	38,2	33,8
1,1045	39,2	34,3
1,105	40,1	33,2
1,1055	39,8	30,6
1,106	37,5	27,3
1,1065	33,5	24,3
1,107	28,8	22,2
1,1075	24,6	21,3
1,108	21,7	21,9
1,1085	19,8	24,0
1,109	18,1	27,0
1,1095	16,3	30,0
1,11	14,7	31,9
1,1105	14,1	32,3
1,111	15,3	31,1
1,1115	18,1	28,8
1,112	21,9	25,7
1,1125	26,0	22,8
1,113	29,8	21,4
1,1135	33,0	22,0
1,114	35,2	24,3
1,1145	36,1	27,3
1,115	35,4	30,2
1,1155	33,5	32,3
1,116	31,8	32,9
1,1165	32,1	31,7
1,117	35,4	28,9
1,1175	41,0	25,7
1,118	47,3	23,0
1,1185	52,9	21,8
1,119	57,4	21,9
1,1195	60,3	23,3
1,12	61,2	25,3
1,1205	59,6	27,6
1,121	55,3	29,2
1,1215	48,9	29,0
1,122	41,2	26,7
1,1225	33,3	23,3
1,123	26,0	19,7
1,1235	19,7	17,0
1,124	14,3	15,8
1,1245	9,4	16,4
1,125	4,3	18,7
1,1255	-1,2	22,1
1,126	-6,4	25,3
1,1265	-10,4	27,6
1,127	-13,3	28,2
1,1275	-16,1	27,5
1,128	-19,8	25,8
1,1285	-23,4	23,4
1,129	-24,2	20,4
1,1295	-19,7	17,8
1,13	-10,2	16,7
1,1305	1,5	17,6
1,131	12,5	19,9
1,1315	21,3	22,6
1,132	27,4	24,8
1,1325	31,1	25,9
1,133	32,8	25,6
1,1335	32,8	24,0
1,134	31,9	21,7
1,1345	30,8	19,6
1,135	29,7	18,4
1,1355	28,3	18,4
1,136	26,0	19,4
1,1365	22,4	21,1
1,137	17,9	23,1
1,1375	13,4	24,8
1,138	9,8	25,2
1,1385	7,4	23,8
1,139	6,4	21,3
1,1395	7,2	18,6
1,14	10,1	16,4
1,1405	14,9	15,3
1,141	20,2	15,4
1,1415	24,8	17,2
1,142	27,9	20,4
1,1425	29,8	24,3
1,143	30,8	27,6
1,1435	31,2	29,6
1,144	31,3	29,8
1,1445	31,3	28,3
1,145	30,7	25,6
1,1455	29,3	22,5
1,146	26,8	20,2
1,1465	23,7	20,1
1,147	20,5	21,9
1,1475	18,1	24,7
1,148	17,1	27,1
1,1485	17,7	28,6
1,149	19,5	29,0
1,1495	22,0	28,0
1,15	25,1	25,9
1,1505	28,5	23,0
1,151	31,5	20,3
1,1515	33,9	18,8
1,152	35,7	19,0
1,1525	37,3	20,7
1,153	38,9	23,3
1,1535	40,4	26,1
1,154	41,4	28,2
1,1545	41,9	28,6
1,155	41,7	26,8
1,1555	40,6	23,5
1,156	38,2	19,7
1,1565	34,5	16,6
1,157	30,2	14,6
1,1575	26,4	14,0
1,158	24,1	15,0
1,1585	23,8	17,3
1,159	25,3	20,5
1,1595	27,6	23,7
1,16	29,5	25,8
1,1605	30,2	26,4
1,161	29,7	25,8
1,1615	28,3	24,1
1,162	26,2	21,6
1,1625	23,9	19,1
1,163	22,0	17,9
1,1635	20,7	18,7
1,164	19,9	21,3
1,1645	19,1	24,8
1,165	17,8	28,3
1,1655	16,0	31,1
1,166	14,2	32,9
1,1665	13,1	33,1
1,167	13,1	31,5
1,1675	14,1	28,6
1,168	15,5	25,4
1,1685	17,2	23,3
1,169	19,3	23,1
1,1695	21,6	24,8
1,17	23,9	27,7
1,1705	26,0	30,7
1,171	28,1	32,6
1,1715	30,5	32,7
1,172	33,4	30,8
1,1725	36,3	27,9
1,173	38,4	25,3
1,1735	39,6	23,6
1,174	39,9	23,5
1,1745	40,0	24,8
1,175	40,4	27,1
1,1755	41,4	29,8
1,176	42,6	32,1
1,1765	42,8	33,5
1,177	41,0	33,8
1,1775	36,9	33,2
1,178	31,6	31,7
1,1785	27,0	29,7
1,179	24,5	27,8
1,1795	24,3	26,9
1,18	25,3	27,6
1,1805	26,0	29,9
1,181	26,0	33,0
1,1815	25,3	35,7
1,182	24,4	37,3
1,1825	23,2	37,4
1,183	21,8	36,2
1,1835	20,7	34,0
1,184	21,1	31,4
1,1845	23,6	28,9
1,185	27,8	27,3
1,1855	32,3	27,0
1,186	36,3	27,8
1,1865	39,7	29,4
1,187	42,4	31,4
1,1875	44,3	33,1
1,188	45,1	34,0
1,1885	45,0	33,6
1,189	44,2	32,0
1,1895	43,0	29,9
1,19	41,3	28,1
1,1905	39,0	27,1
1,191	35,8	27,4
1,1915	31,8	29,2
1,192	27,1	32,2
1,1925	22,2	35,7
1,193	17,5	38,6
1,1935	13,6	40,0
1,194	10,8	39,8
1,1945	9,0	38,3
1,195	6,9	35,9
1,1955	3,4	33,4
1,196	-2,4	31,7
1,1965	-9,7	31,3
1,197	-17,0	32,1
1,1975	-23,0	33,3
1,198	-27,2	34,4
1,1985	-29,2	35,1
1,199	-29,0	35,2
1,1995	-26,5	34,6
1,2	-21,8	33,1
1,2005	-15,2	30,9
1,201	-6,9	28,7
1,2015	2,1	27,2
1,202	10,9	26,9
1,2025	18,5	27,7
1,203	24,3	29,3
1,2035	28,4	31,5
1,204	31,1	33,8
1,2045	32,9	35,3
1,205	34,2	35,3
1,2055	34,3	33,7
1,206	32,5	31,1
1,2065	28,8	28,3
1,207	23,5	26,0
1,2075	18,1	25,0
1,208	13,4	25,3
1,2085	9,9	27,1
1,209	7,9	29,8
1,2095	7,4	32,7
1,21	8,1	34,6
1,2105	9,2	35,3
1,211	10,4	35,1
1,2115	11,7	34,0
1,212	13,1	32,3
1,2125	15,6	30,5
1,213	20,9	29,8
1,2135	30,5	30,7
1,214	43,8	32,8
1,2145	57,7	35,1
1,215	68,9	37,0
1,2155	75,5	38,2
1,216	76,6	38,3
1,2165	72,3	37,7
1,217	63,5	36,3
1,2175	51,7	34,6
1,218	39,0	33,2
1,2185	27,3	32,5
1,219	18,1	32,6
1,2195	11,8	33,4
1,22	8,0	34,8
1,2205	5,5	36,3
1,221	3,6	37,3
1,2215	2,3	36,8
1,222	2,4	34,5
1,2225	4,7	31,3
1,223	9,1	28,2
1,2235	14,8	26,0
1,224	20,1	25,4
1,2245	24,2	26,5
1,225	26,8	29,1
1,2255	28,5	32,5
1,226	29,8	35,9
1,2265	30,9	38,3
1,227	31,8	39,2
1,2275	31,9	38,6
1,228	30,3	37,2
1,2285	26,7	35,3
1,229	21,8	33,6
1,2295	17,3	32,8
1,23	14,1	33,4
1,2305	12,6	35,2
1,231	12,4	37,6
1,2315	12,9	39,7
1,232	13,8	41,0
1,2325	15,0	41,2
1,233	16,6	39,9
1,2335	18,9	37,0
1,234	22,0	33,3
1,2345	25,6	29,7
1,235	29,3	27,6
1,2355	33,1	27,3
1,236	36,7	28,4
1,2365	39,9	30,5
1,237	42,1	32,9
1,2375	42,7	34,6
1,238	41,4	34,8
1,2385	39,0	33,0
1,239	36,1	30,1
1,2395	33,4	27,2
1,24	31,2	24,8
1,2405	29,4	23,4
1,241	27,9	23,1
1,2415	26,4	24,0
1,242	24,7	26,1
1,2425	22,6	29,0
1,243	19,8	31,8
1,2435	16,4	33,5
1,244	12,7	33,9
1,2445	8,8	33,0
1,245	4,8	31,3
1,2455	0,3	29,1
1,246	-4,4	27,3
1,2465	-8,8	27,0
1,247	-11,9	28,4
1,2475	-13,3	31,2
1,248	-12,8	34,1
1,2485	-9,8	36,3
1,249	-4,1	37,0
1,2495	3,8	36,0
1,25	12,8	33,6
1,2505	21,4	30,6
1,251	28,2	27,9
1,2515	32,4	26,4
1,252	34,2	26,1
1,2525	34,6	26,8
1,253	34,7	28,3
1,2535	35,4	30,4
1,254	37,1	32,8
1,2545	39,9	34,5
1,255	43,1	34,5
1,2555	45,6	32,8
1,256	46,7	30,3
1,2565	45,8	27,9
1,257	43,3	26,4
1,2575	40,2	26,4
1,258	37,6	27,7
1,2585	36,2	30,2
1,259	35,6	33,0
1,2595	35,3	35,4
1,26	34,9	36,7
1,2605	34,2	36,7
1,261	32,9	35,7
1,2615	31,2	34,2
1,262	29,3	32,5
1,2625	27,8	31,3
1,263	27,4	31,3
1,2635	28,4	32,5
1,264	30,4	34,4
1,2645	32,4	35,9
1,265	33,6	36,9
1,2655	33,9	37,2
1,266	34,1	36,8
1,2665	34,8	35,4
1,267	36,1	33,3
1,2675	38,1	30,7
1,268	40,4	28,6
1,2685	42,5	27,6
1,269	43,8	28,0
1,2695	44,0	29,7
1,27	42,8	32,0
1,2705	40,4	34,5
1,271	36,9	36,1
1,2715	32,8	35,9
1,272	28,6	33,8
1,2725	24,8	30,9
1,273	21,8	28,3
1,2735	19,9	26,7
1,274	19,3	26,6
1,2745	19,8	27,7
1,275	21,0	29,6
1,2755	22,4	31,9
1,276	24,1	33,8
1,2765	26,2	35,0
1,277	28,6	35,0
1,2775	31,0	34,2
1,278	32,8	32,9
1,2785	33,7	31,4
1,279	33,8	29,6
1,2795	33,7	27,8
1,28	33,6	26,0
1,2805	33,7	23,6
1,281	33,9	20,1
1,2815	33,8	15,0
1,282	32,8	8,4
1,2825	30,6	0,5
1,283	27,5	-8,2
1,2835	24,2	-17,0
1,284	22,1	-24,9
1,2845	22,0	-30,7
1,285	23,8	-33,9
1,2855	26,8	-34,7
1,286	29,8	-33,9
1,2865	31,8	-31,9
1,287	32,3	-28,7
1,2875	31,1	-25,0
1,288	28,6	-21,9
1,2885	25,2	-20,3
1,289	21,2	-20,2
1,2895	17,0	-20,8
1,29	13,3	-21,1
1,2905	10,1	-20,6
1,291	7,5	-18,8
1,2915	5,4	-15,7
1,292	3,8	-11,4
1,2925	3,1	-6,9
1,293	3,5	-2,9
1,2935	5,0	-0,1
1,294	7,4	1,4
1,2945	10,1	1,9
1,295	12,0	1,9
1,2955	12,3	1,8
1,296	10,8	2,3
1,2965	8,5	4,0
1,297	6,3	7,0
1,2975	4,7	11,1
1,298	3,7	15,3
1,2985	3,2	18,8
1,299	3,6	21,1
1,2995	5,0	21,9
1,3	7,4	21,3
1,3005	10,2	19,9
1,301	12,6	18,6
1,3015	14,1	18,1
1,302	14,7	18,8
1,3025	14,8	20,8
1,303	15,0	23,9
1,3035	16,3	27,6
1,304	18,2	31,1
1,3045	20,2	33,4
1,305	21,2	34,1
1,3055	20,9	33,3
1,306	19,7	31,5
1,3065	18,0	29,4
1,307	16,1	27,6
1,3075	14,4	26,9
1,308	12,9	28,0
1,3085	12,3	30,6
1,309	13,7	34,1
1,3095	17,8	37,5
1,31	24,9	39,8
1,3105	33,5	40,4
1,311	41,7	39,3
1,3115	47,8	36,8
1,312	50,6	33,9
1,3125	50,0	31,5
1,313	47,2	30,7
1,3135	43,4	32,1
1,314	39,3	35,2
1,3145	35,0	38,8
1,315	30,3	41,8
1,3155	25,5	43,5
1,316	20,6	43,6
1,3165	15,3	42,3
1,317	9,1	39,8
1,3175	2,2	37,0
1,318	-4,6	34,7
1,3185	-11,0	33,7
1,319	-17,2	34,1
1,3195	-23,7	35,6
1,32	-30,5	37,8
1,3205	-36,7	40,6
1,321	-40,2	43,0
1,3215	-39,4	44,1
1,322	-34,1	43,5
1,3225	-25,8	41,6
1,323	-16,3	39,3
1,3235	-7,4	37,3
1,324	-0,3	36,3
1,3245	5,2	36,8
1,325	9,8	38,8
1,3255	14,5	41,6
1,326	19,5	44,3
1,3265	24,3	46,3
1,327	28,4	47,0
1,3275	31,7	46,6
1,328	33,8	45,4
1,3285	35,4	43,9
1,329	36,8	42,3
1,3295	38,6	41,4
1,33	40,3	41,9
1,3305	41,8	43,9
1,331	42,8	46,7
1,3315	43,7	49,3
1,332	44,9	51,3
1,3325	46,6	52,2
1,333	48,0	51,7
1,3335	48,7	49,7
1,334	48,7	46,8
1,3345	48,7	44,0
1,335	48,9	42,5
1,3355	49,4	42,6
1,336	49,9	43,9
1,3365	50,3	45,9
1,337	50,5	48,1
1,3375	50,8	49,7
1,338	51,6	49,8
1,3385	53,1	48,1
1,339	55,1	45,1
1,3395	56,5	41,7
1,34	56,4	38,9
1,3405	53,8	37,3
1,341	49,4	37,2
1,3415	44,4	38,7
1,342	40,2	41,2
1,3425	37,3	43,9
1,343	35,5	45,8
1,3435	34,3	46,4
1,344	33,5	45,9
1,3445	33,2	44,7
1,345	32,9	43,5
1,3455	32,0	42,4
1,346	30,5	41,9
1,3465	28,3	42,6
1,347	25,8	44,4
1,3475	23,3	47,2
1,348	21,2	50,1
1,3485	20,1	52,6
1,349	20,3	53,8
1,3495	21,4	53,6
1,35	23,2	51,9
1,3505	25,5	49,3
1,351	28,8	46,4
1,3515	33,4	44,0
1,352	39,1	42,6
1,3525	44,7	42,5
1,353	48,8	43,5
1,3535	50,6	45,6
1,354	49,8	48,3
1,3545	47,0	50,5
1,355	42,8	51,3
1,3555	38,7	50,5
1,356	35,3	48,6
1,3565	32,9	46,3
1,357	31,3	44,2
1,3575	30,4	43,3
1,358	29,9	43,9
1,3585	29,0	46,1
1,359	26,3	49,3
1,3595	21,4	52,1
1,36	14,8	53,5
1,3605	7,7	53,2
1,361	0,9	51,5
1,3615	-5,1	48,8
1,362	-10,3	45,7
1,3625	-14,0	42,9
1,363	-15,5	41,5
1,3635	-14,4	42,0
1,364	-10,6	44,3
1,3645	-4,7	47,4
1,365	2,3	50,4
1,3655	9,6	52,6
1,366	16,3	53,2
1,3665	22,2	51,8
1,367	26,7	48,8
1,3675	29,4	45,0
1,368	30,4	41,8
1,3685	29,9	40,0
1,369	28,4	40,1
1,3695	26,6	41,5
1,37	25,2	43,5
1,3705	24,4	45,5
1,371	24,0	46,8
1,3715	23,5	46,8
1,372	23,1	45,3
1,3725	23,2	43,0
1,373	24,2	40,9
1,3735	25,7	39,6
1,374	27,2	39,5
1,3745	28,1	40,3
1,375	28,4	42,1
1,3755	28,6	44,5
1,376	29,1	47,2
1,3765	30,5	49,4
1,377	32,8	50,5
1,3775	35,5	50,3
1,378	37,9	48,9
1,3785	39,5	46,7
1,379	40,0	44,3
1,3795	39,4	42,8
1,38	37,8	43,2
1,3805	35,1	45,3
1,381	31,5	48,5
1,3815	27,0	51,4
1,382	22,1	53,2
1,3825	17,3	53,3
1,383	13,1	51,7
1,3835	9,4	48,8
1,384	6,1	45,3
1,3845	4,1	42,3
1,385	4,4	40,5
1,3855	7,4	40,3
1,386	12,4	41,4
1,3865	18,1	43,3
1,387	23,2	45,4
1,3875	26,9	46,9
1,388	29,1	47,2
1,3885	29,9	46,3
1,389	29,9	44,7
1,3895	29,5	43,2
1,39	28,7	42,3
1,3905	27,6	42,3
1,391	26,3	43,5
1,3915	25,4	45,9
1,392	25,3	48,9
1,3925	25,9	51,8
1,393	27,2	53,6
1,3935	28,6	53,7
1,394	29,6	52,3
1,3945	29,6	50,0
1,395	28,4	47,3
1,3955	26,6	44,8
1,396	25,0	43,0
1,3965	24,3	42,8
1,397	24,1	44,3
1,3975	23,7	46,8
1,398	22,5	49,4
1,3985	20,6	51,9
1,399	18,1	53,5
1,3995	16,4	53,8
1,4	16,6	52,5
1,4005	19,2	49,9
1,401	23,3	47,0
1,4015	27,3	44,5
1,402	30,1	43,1
1,4025	31,4	43,0
1,403	30,5	44,1
1,4035	27,2	45,9
1,404	21,6	47,9
1,4045	15,2	48,9
1,405	9,5	48,3
1,4055	5,3	46,1
1,406	2,6	43,3
1,4065	1,8	40,8
1,407	2,7	39,3
1,4075	5,1	39,1
1,408	8,5	40,5
1,4085	12,1	43,0
1,409	15,2	46,1
1,4095	17,5	48,6
1,41	19,1	49,8
1,4105	20,0	49,6
1,411	20,2	48,1
1,4115	20,0	45,8
1,412	19,6	43,2
1,4125	19,2	40,8
1,413	18,4	40,1
1,4135	17,4	41,6
1,414	16,7	44,8
1,4145	16,8	48,5
1,415	18,2	51,6
1,4155	20,3	53,2
1,416	22,7	53,0
1,4165	24,9	50,9
1,417	26,7	47,3
1,4175	27,7	43,2
1,418	27,2	39,7
1,4185	25,2	37,3
1,419	22,1	36,2
1,4195	18,9	36,0
1,42	16,7	36,7
1,4205	16,3	38,0
1,421	17,8	39,3
1,4215	20,3	39,6
1,422	23,3	38,5
1,4225	26,2	36,1
1,423	28,1	33,3
1,4235	28,8	31,4
1,424	28,7	31,0
1,4245	28,7	32,4
1,425	29,6	35,2
1,4255	31,1	38,5
1,426	32,8	41,6
1,4265	34,2	43,6
1,427	35,2	44,1
1,4275	35,9	43,4
1,428	36,0	41,9
1,4285	35,1	39,8
1,429	33,1	37,6
1,4295	30,3	36,0
1,43	27,3	36,0
1,4305	25,6	37,6
1,431	25,6	40,0
1,4315	27,3	42,2
1,432	29,9	43,7
1,4325	32,6	43,8
1,433	35,0	42,6
1,4335	36,8	39,9
1,434	37,7	36,2
1,4345	38,1	32,6
1,435	37,8	30,1
1,4355	36,0	29,5
1,436	31,8	30,7
1,4365	24,5	32,8
1,437	14,6	35,2
1,4375	4,1	37,0
1,438	-5,0	37,3
1,4385	-11,2	35,9
1,439	-15,1	33,3
1,4395	-17,8	30,5
1,44	-19,6	28,4
1,4405	-18,9	27,2
1,441	-14,3	27,2
1,4415	-5,6	28,8
1,442	5,2	31,8
1,4425	16,1	35,6
1,443	25,6	38,9
1,4435	33,2	40,8
1,444	38,8	40,9
1,4445	42,3	39,6
1,445	43,5	37,6
1,4455	42,3	35,3
1,446	39,0	33,7
1,4465	34,5	33,3
1,447	29,6	34,7
1,4475	24,8	37,3
1,448	20,3	40,1
1,4485	16,8	42,1
1,449	14,4	42,8
1,4495	13,5	41,9
1,45	13,8	39,8
1,4505	14,9	37,2
1,451	16,3	35,0
1,4515	17,6	33,7
1,452	18,3	33,8
1,4525	18,0	35,1
1,453	16,7	37,0
1,4535	14,2	38,9
1,454	10,6	40,5
1,4545	6,3	40,8
1,455	1,6	39,3
1,4555	-3,1	36,5
1,456	-7,5	33,1
1,4565	-10,8	30,3
1,457	-12,4	28,7
1,4575	-12,1	28,3
1,458	-10,1	29,4
1,4585	-6,8	31,6
1,459	-2,9	34,3
1,4595	1,3	36,7
1,46	5,1	37,7
1,4605	7,8	37,2
1,461	9,3	35,6
1,4615	9,8	33,3
1,462	9,6	30,8
1,4625	9,3	28,7
1,463	9,3	27,8
1,4635	9,9	28,6
1,464	11,7	30,7
1,4645	15,6	33,3
1,465	22,8	35,3
1,4655	33,4	36,1
1,466	45,0	35,1
1,4665	54,3	32,6
1,467	59,3	29,4
1,4675	59,8	26,3
1,468	57,2	24,2
1,4685	52,8	23,3
1,469	47,3	23,6
1,4695	40,8	24,7
1,47	33,7	26,5
1,4705	26,6	28,5
1,471	20,0	30,2
1,4715	14,3	30,4
1,472	9,1	29,1
1,4725	3,8	26,8
1,473	-1,9	24,3
1,4735	-7,8	22,6
1,474	-13,2	22,1
1,4745	-17,0	22,9
1,475	-18,5	25,2
1,4755	-17,8	28,4
1,476	-15,7	31,3
1,4765	-12,8	33,1
1,477	-10,2	33,2
1,4775	-8,3	31,8
1,478	-6,8	29,6
1,4785	-5,1	26,8
1,479	-2,9	24,0
1,4795	0,0	22,2
1,48	3,0	22,6
1,4805	6,1	25,3
1,481	9,0	29,2
1,4815	11,7	32,9
1,482	14,2	35,3
1,4825	17,1	36,1
1,483	20,3	35,2
1,4835	23,0	33,2
1,484	23,8	30,5
1,4845	22,5	27,8
1,485	19,5	25,8
1,4855	16,1	25,3
1,486	12,5	26,1
1,4865	8,5	27,8
1,487	4,4	29,7
1,4875	1,1	31,1
1,488	-0,4	31,1
1,4885	0,2	29,2
1,489	2,6	25,8
1,4895	6,0	22,0
1,49	10,0	18,8
1,4905	13,9	16,9
1,491	17,4	16,8
1,4915	20,2	18,3
1,492	21,8	21,1
1,4925	22,2	24,5
1,493	21,8	27,3
1,4935	21,4	28,8
1,494	21,4	28,8
1,4945	21,9	27,5
1,495	22,5	25,5
1,4955	22,9	23,4
1,496	23,0	21,9
1,4965	22,2	21,8
1,497	20,1	23,3
1,4975	15,5	26,3
1,498	7,6	29,5
1,4985	-2,6	32,3
1,499	-12,9	33,9
1,4995	-20,4	33,8
1,5	-23,7	31,9
1,5005	-23,0	28,8
1,501	-19,6	25,3
1,5015	-14,3	22,7
1,502	-7,4	21,8
1,5025	1,3	22,7
1,503	12,3	24,9
1,5035	25,6	27,8
1,504	39,9	30,7
1,5045	53,7	32,1
1,505	65,4	31,3
1,5055	73,7	28,6
1,506	78,0	25,4
1,5065	78,1	22,9
1,507	74,6	21,5
1,5075	68,3	21,1
1,508	60,0	21,7
1,5085	50,8	23,1
1,509	41,4	24,9
1,5095	32,3	26,4
1,51	23,4	27,1
1,5105	15,1	26,6
1,511	7,9	25,7
1,5115	2,7	24,7
1,512	-0,1	23,9
1,5125	-0,8	23,6
1,513	-0,5	24,2
1,5135	-0,5	25,9
1,514	-2,1	28,4
1,5145	-4,9	31,0
1,515	-7,9	33,2
1,5155	-9,9	34,6
1,516	-10,8	34,8
1,5165	-11,1	33,8
1,517	-10,9	31,5
1,5175	-10,2	28,6
1,518	-9,0	25,5
1,5185	-7,1	23,3
1,519	-4,6	22,4
1,5195	-1,5	23,1
1,52	2,0	25,3
1,5205	5,6	28,4
1,521	9,3	31,4
1,5215	12,9	33,0
1,522	16,6	32,4
1,5225	19,9	30,1
1,523	22,4	27,2
1,5235	23,4	24,5
1,524	23,2	22,7
1,5245	22,5	22,3
1,525	22,5	23,4
1,5255	23,7	25,8
1,526	25,2	28,8
1,5265	25,8	31,4
1,527	24,9	32,8
1,5275	23,0	32,7
1,528	21,0	31,4
1,5285	19,5	29,3
1,529	18,9	26,8
1,5295	18,7	25,4
1,53	18,0	25,6
1,5305	16,1	27,7
1,531	13,5	30,5
1,5315	11,5	32,9
1,532	11,2	34,3
1,5325	12,4	34,4
1,533	14,2	33,3
1,5335	15,9	31,4
1,534	18,0	29,3
1,5345	20,8	27,8
1,535	24,1	27,4
1,5355	27,3	27,8
1,536	30,0	28,8
1,5365	32,4	30,0
1,537	34,8	31,4
1,5375	37,0	32,8
1,538	38,6	33,3
1,5385	38,8	32,6
1,539	37,5	30,7
1,5395	34,5	28,4
1,54	30,6	26,6
1,5405	26,3	25,7
1,541	22,2	25,9
1,5415	18,1	27,3
1,542	14,2	29,9
1,5425	10,0	32,8
1,543	5,3	35,0
1,5435	-0,2	35,8
1,544	-5,6	35,2
1,5445	-10,1	33,8
1,545	-13,1	31,8
1,5455	-14,2	29,8
1,546	-12,3	28,3
1,5465	-6,8	28,2
1,547	1,4	29,7
1,5475	10,6	32,1
1,548	18,6	34,4
1,5485	23,6	35,9
1,549	24,3	35,9
1,5495	20,7	34,5
1,55	14,8	31,7
1,5505	8,9	28,0
1,551	4,8	24,4
1,5515	2,8	21,8
1,552	2,2	20,7
1,5525	1,8	21,1
1,553	0,7	22,5
1,5535	-1,5	24,7
1,554	-4,2	27,1
1,5545	-6,3	28,7
1,555	-6,8	28,7
1,5555	-5,4	27,3
1,556	-2,4	25,2
1,5565	1,7	23,4
1,557	5,8	22,5
1,5575	9,6	23,1
1,558	12,8	25,3
1,5585	15,6	28,7
1,559	18,3	32,6
1,5595	21,1	35,7
1,56	24,0	37,3
1,5605	26,8	37,0
1,561	29,1	35,6
1,5615	30,4	33,6
1,562	30,3	31,6
1,5625	28,4	30,3
1,563	24,8	30,5
1,5635	19,6	32,1
1,564	14,2	34,4
1,5645	9,3	36,4
1,565	5,8	37,8
1,5655	3,8	38,2
1,566	3,5	37,2
1,5665	4,9	34,7
1,567	7,5	31,1
1,5675	10,4	27,3
1,568	12,5	24,2
1,5685	12,6	22,8
1,569	10,5	23,1
1,5695	6,9	24,7
1,57	3,0	26,9
1,5705	0,0	29,3
1,571	-1,8	30,9
1,5715	-2,9	30,9
1,572	-3,4	29,3
1,5725	-3,2	26,7
1,573	-1,7	24,1
1,5735	0,8	22,1
1,574	3,2	21,3
1,5745	4,5	22,2
1,575	4,4	24,8
1,5755	3,6	28,4
1,576	3,3	32,3
1,5765	4,3	35,2
1,577	6,8	36,7
1,5775	9,9	37,0
1,578	13,1	36,0
1,5785	15,8	34,1
1,579	17,8	31,7
1,5795	19,6	30,0
1,58	21,1	29,9
1,5805	22,6	31,3
1,581	23,7	33,5
1,5815	24,9	36,0
1,582	26,5	37,9
1,5825	28,4	38,8
1,583	30,1	38,1
1,5835	31,1	36,2
1,584	31,0	34,0
1,5845	29,6	32,4
1,585	26,9	32,0
1,5855	23,7	32,5
1,586	20,3	33,5
1,5865	16,9	34,7
1,587	13,4	36,1
1,5875	9,4	37,4
1,588	5,2	37,8
1,5885	1,4	36,6
1,589	-1,2	33,7
1,5895	-2,0	29,9
1,59	-1,4	26,4
1,5905	-0,2	23,9
1,591	1,0	23,4
1,5915	1,9	25,0
1,592	3,0	28,1
1,5925	4,9	31,6
1,593	7,6	34,0
1,5935	10,6	34,6
1,594	13,3	33,4
1,5945	15,2	31,4
1,595	16,3	29,1
1,5955	16,7	27,0
1,596	17,0	25,7
1,5965	17,7	25,6
1,597	18,8	26,7
1,5975	19,6	28,5
1,598	18,6	30,3
1,5985	14,8	31,7
1,599	8,3	32,2
1,5995	0,3	31,6
1,6	-7,1	29,9
1,6005	-12,1	27,3
1,601	-14,1	24,5
1,6015	-13,6	22,1
1,602	-11,8	20,7
1,6025	-9,3	20,5
1,603	-4,9	21,3
1,6035	3,4	22,9
1,604	16,3	24,6
1,6045	32,5	25,7
1,605	49,4	25,5
1,6055	64,7	24,2
1,606	76,4	22,1
1,6065	83,4	20,1
1,607	85,3	18,8
1,6075	82,7	18,7
1,608	76,9	20,0
1,6085	68,8	22,7
1,609	59,0	26,2
1,6095	47,8	29,6
1,61	35,8	31,7
1,6105	24,1	32,2
1,611	13,5	31,1
1,6115	4,4	29,2
1,612	-3,1	26,9
1,6125	-9,3	25,3
1,613	-14,3	25,2
1,6135	-18,1	27,1
1,614	-20,5	30,3
1,6145	-21,5	33,3
1,615	-21,8	35,4
1,6155	-22,1	36,1
1,616	-22,9	35,2
1,6165	-24,2	32,7
1,617	-25,3	29,3
1,6175	-25,6	25,4
1,618	-24,7	22,2
1,6185	-22,8	20,5
1,619	-20,1	20,4
1,6195	-16,6	21,9
1,62	-12,7	24,3
1,6205	-9,0	27,2
1,621	-6,4	29,5
1,6215	-5,8	30,1
1,622	-6,8	28,7
1,6225	-8,1	26,0
1,623	-8,3	23,2
1,6235	-7,5	21,1
1,624	-6,5	20,5
1,6245	-5,9	21,6
1,625	-5,9	23,9
1,6255	-5,8	27,0
1,626	-5,1	30,3
1,6265	-3,5	33,0
1,627	-1,0	34,5
1,6275	2,2	34,4
1,628	5,7	32,8
1,6285	9,0	30,2
1,629	11,5	27,5
1,6295	13,0	25,9
1,63	13,6	26,2
1,6305	14,0	28,1
1,631	14,3	30,8
1,6315	15,0	33,4
1,632	16,4	35,1
1,6325	19,1	35,2
1,633	23,2	33,5
1,6335	27,9	30,6
1,634	32,2	27,3
1,6345	34,7	24,7
1,635	34,4	23,2
1,6355	30,9	23,0
1,636	25,0	23,9
1,6365	18,4	25,6
1,637	12,4	27,8
1,6375	7,3	29,6
1,638	2,5	29,9
1,6385	-2,7	28,3
1,639	-8,9	25,5
1,6395	-15,5	22,6
1,64	-21,6	20,3
1,6405	-26,8	19,1
1,641	-31,8	19,5
1,6415	-36,9	21,5
1,642	-41,7	24,5
1,6425	-45,1	27,6
1,643	-46,6	29,7
1,6435	-45,8	30,4
1,644	-42,9	29,6
1,6445	-38,9	27,8
1,645	-35,1	25,4
1,6455	-32,4	22,8
1,646	-30,1	20,4
1,6465	-26,3	19,5
1,647	-19,2	20,7
1,6475	-8,8	23,3
1,648	3,4	26,1
1,6485	15,0	28,5
1,649	24,0	29,7
1,6495	29,4	29,7
1,65	31,3	28,5
1,6505	30,6	26,5
1,651	28,5	24,4
1,6515	26,1	22,9
1,652	24,4	22,4
1,6525	24,3	22,9
1,653	25,8	24,5
1,6535	28,3	26,8
1,654	30,8	29,4
1,6545	31,3	31,5
1,655	29,2	32,0
1,6555	25,3	30,8
1,656	21,0	28,5
1,6565	17,6	26,1
1,657	15,4	24,1
1,6575	13,3	23,2
1,658	9,7	23,7
1,6585	4,2	25,6
1,659	-2,4	28,2
1,6595	-8,3	30,7
1,66	-12,6	32,1
1,6605	-15,5	32,1
1,661	-17,5	31,2
1,6615	-19,2	29,6
1,662	-20,9	27,6
1,6625	-22,6	25,7
1,663	-23,9	24,6
1,6635	-24,4	24,8
1,664	-23,8	26,5
1,6645	-22,1	29,0
1,665	-19,6	31,7
1,6655	-16,8	33,6
1,666	-14,1	33,8
1,6665	-11,5	32,1
1,667	-9,0	28,9
1,6675	-6,8	25,5
1,668	-4,6	22,9
1,6685	-2,1	21,9
1,669	1,3	22,4
1,6695	5,7	23,8
1,67	10,2	25,6
1,6705	13,7	27,4
1,671	15,2	28,5
1,6715	14,6	28,0
1,672	12,2	26,1
1,6725	8,3	23,4
1,673	4,1	20,8
1,6735	0,3	18,9
1,674	-2,8	18,2
1,6745	-5,6	19,2
1,675	-8,4	21,9
1,6755	-11,3	25,8
1,676	-14,0	29,9
1,6765	-16,5	33,4
1,677	-19,0	35,5
1,6775	-21,5	36,0
1,678	-23,8	34,8
1,6785	-25,3	32,2
1,679	-25,9	28,9
1,6795	-26,1	26,3
1,68	-26,0	25,5
1,6805	-25,3	26,8
1,681	-23,7	29,4
1,6815	-20,8	32,2
1,682	-16,9	34,1
1,6825	-13,0	34,5
1,683	-10,0	33,5
1,6835	-8,1	31,2
1,684	-7,1	28,2
1,6845	-6,7	24,9
1,685	-6,8	22,4
1,6855	-7,3	21,1
1,686	-8,2	21,2
1,6865	-8,8	22,5
1,687	-8,5	24,9
1,6875	-7,0	27,6
1,688	-4,9	29,2
1,6885	-2,8	28,8
1,689	-1,3	26,8
1,6895	0,3	24,0
1,69	2,6	21,6
1,6905	5,8	20,4
1,691	9,6	20,8
1,6915	12,8	22,7
1,692	14,5	25,5
1,6925	14,7	28,6
1,693	13,3	30,9
1,6935	10,7	32,0
1,694	6,6	31,8
1,6945	0,6	30,5
1,695	-6,9	28,4
1,6955	-15,1	25,8
1,696	-22,8	23,4
1,6965	-29,4	22,3
1,697	-34,3	22,9
1,6975	-37,0	24,9
1,698	-37,2	27,2
1,6985	-35,1	28,8
1,699	-30,4	29,2
1,6995	-22,8	28,0
1,7	-12,0	25,7
1,7005	1,2	22,9
1,701	14,8	20,4
1,7015	26,6	19,1
1,702	35,5	19,3
1,7025	41,0	21,0
1,703	43,5	23,7
1,7035	43,2	26,9
1,704	40,4	30,2
1,7045	35,7	32,3
1,705	29,6	32,4
1,7055	23,0	30,6
1,706	16,4	27,8
1,7065	10,6	25,1
1,707	5,8	23,2
1,7075	2,4	22,4
1,708	0,3	23,1
1,7085	-1,4	25,0
1,709	-3,0	28,1
1,7095	-4,4	31,3
1,71	-4,5	33,7
1,7105	-2,6	34,4
1,711	1,4	33,6
1,7115	6,9	31,9
1,712	12,4	29,9
1,7125	17,0	28,3
1,713	20,1	27,5
1,7135	21,9	28,2
1,714	22,4	30,1
1,7145	21,6	32,5
1,715	19,5	34,6
1,7155	16,9	35,8
1,716	14,8	35,6
1,7165	13,4	33,8
1,717	12,3	30,8
1,7175	11,0	27,1
1,718	9,1	23,8
1,7185	6,5	22,2
1,719	3,1	22,4
1,7195	-0,7	24,1
1,72	-4,6	26,5
1,7205	-8,0	28,8
1,721	-10,6	30,2
1,7215	-12,5	30,0
1,722	-14,1	28,2
1,7225	-15,6	25,7
1,723	-16,9	23,3
1,7235	-17,9	21,7
1,724	-18,3	21,4
1,7245	-18,2	22,6
1,725	-17,7	25,2
1,7255	-16,8	28,4
1,726	-15,2	31,6
1,7265	-12,8	33,8
1,727	-10,3	34,8
1,7275	-8,5	34,5
1,728	-8,1	33,3
1,7285	-9,3	31,1
1,729	-11,0	28,3
1,7295	-12,0	25,8
1,73	-11,5	25,1
1,7305	-10,1	26,2
1,731	-8,8	28,6
1,7315	-8,6	31,3
1,732	-9,8	33,4
1,7325	-12,2	34,3
1,733	-15,2	33,3
1,7335	-17,3	30,8
1,734	-16,8	27,7
1,7345	-12,7	24,9
1,735	-5,5	23,4
1,7355	2,8	23,5
1,736	10,1	25,1
1,7365	14,9	27,6
1,737	17,0	30,6
1,7375	16,8	33,3
1,738	15,3	34,8
1,7385	14,3	34,2
1,739	15,6	32,1
1,7395	20,0	29,3
1,74	26,2	26,9
1,7405	32,1	25,4
1,741	35,7	25,4
1,7415	36,4	26,7
1,742	34,1	28,9
1,7425	29,8	30,9
1,743	24,8	31,9
1,7435	20,4	31,6
1,744	16,8	30,1
1,7445	13,8	27,9
1,745	10,5	25,4
1,7455	6,5	22,9
1,746	2,1	21,1
1,7465	-2,3	20,9
1,747	-6,7	22,6
1,7475	-10,8	25,6
1,748	-14,6	28,8
1,7485	-18,4	31,2
1,749	-22,3	32,1
1,7495	-26,6	31,3
1,75	-30,9	28,8
1,7505	-34,8	25,3
1,751	-37,9	22,0
1,7515	-39,8	19,8
1,752	-39,3	19,1
1,7525	-35,8	19,8
1,753	-29,8	21,3
1,7535	-22,6	23,4
1,754	-15,8	25,4
1,7545	-10,2	26,7
1,755	-6,3	26,3
1,7555	-4,1	24,1
1,756	-3,2	21,1
1,7565	-3,3	18,3
1,757	-4,5	16,3
1,7575	-6,5	15,9
1,758	-8,8	17,0
1,7585	-10,9	19,5
1,759	-12,6	22,8
1,7595	-13,1	26,2
1,76	-11,7	28,6
1,7605	-8,2	29,6
1,761	-3,6	29,2
1,7615	-0,1	27,9
1,762	0,5	25,8
1,7625	-2,3	23,8
1,763	-7,6	22,7
1,7635	-14,2	23,2
1,764	-20,1	24,8
1,7645	-24,2	26,8
1,765	-26,1	28,4
1,7655	-26,3	29,3
1,766	-25,8	29,0
1,7665	-25,3	27,5
1,767	-24,7	25,0
1,7675	-24,1	22,2
1,768	-22,9	19,7
1,7685	-21,2	18,2
1,769	-18,8	18,1
1,7695	-15,8	19,0
1,77	-11,9	20,4
1,7705	-7,4	22,1
1,771	-3,0	23,3
1,7715	0,9	23,2
1,772	4,4	21,6
1,7725	7,8	19,0
1,773	11,3	16,5
1,7735	15,0	14,6
1,774	18,7	13,5
1,7745	22,3	13,6
1,775	24,9	15,0
1,7755	26,1	17,5
1,776	25,4	20,7
1,7765	23,5	23,6
1,777	21,4	25,2
1,7775	20,2	24,8
1,778	19,9	22,8
1,7785	19,7	19,9
1,779	18,4	17,0
1,7795	15,6	15,5
1,78	11,4	16,0
1,7805	7,2	18,5
1,781	3,8	22,0
1,7815	1,8	25,4
1,782	1,3	27,5
1,7825	1,6	27,6
1,783	2,1	25,4
1,7835	2,9	21,8
1,784	4,8	17,8
1,7845	9,0	14,6
1,785	15,6	12,8
1,7855	22,9	12,8
1,786	28,4	13,9
1,7865	30,4	15,8
1,787	28,6	17,9
1,7875	23,8	19,7
1,788	17,3	20,0
1,7885	10,6	18,7
1,789	4,3	16,3
1,7895	-1,2	13,5
1,79	-5,9	11,3
1,7905	-9,8	9,8
1,791	-13,1	9,6
1,7915	-15,9	10,7
1,792	-18,0	13,0
1,7925	-19,5	16,1
1,793	-20,3	19,2
1,7935	-20,3	21,4
1,794	-19,8	22,4
1,7945	-19,2	22,1
1,795	-19,2	20,9
1,7955	-20,1	19,2
1,796	-21,3	17,8
1,7965	-22,1	17,7
1,797	-22,1	19,3
1,7975	-22,0	22,1
1,798	-22,6	25,1
1,7985	-23,8	27,5
1,799	-25,1	28,8
1,7995	-25,8	28,3
1,8	-25,1	26,1
1,8005	-22,2	22,6
1,801	-16,6	19,1
1,8015	-9,2	16,7
1,802	-1,6	16,1
1,8025	4,5	17,2
1,803	8,3	19,2
1,8035	9,7	21,2
1,804	9,3	22,6
1,8045	8,1	22,5
1,805	7,0	20,7
1,8055	7,0	17,7
1,806	8,3	14,3
1,8065	10,2	11,8
1,807	11,8	10,6
1,8075	12,5	10,9
1,808	12,1	12,5
1,8085	11,0	15,1
1,809	9,8	18,3
1,8095	9,0	21,2
1,81	8,8	23,2
1,8105	9,2	23,7
1,811	9,9	22,6
1,8115	10,7	20,6
1,812	11,1	18,2
1,8125	10,3	16,3
1,813	8,2	16,1
1,8135	6,1	17,9
1,814	5,8	21,3
1,8145	8,4	25,0
1,815	13,2	28,1
1,8155	18,5	29,9
1,816	22,9	29,8
1,8165	25,9	28,1
1,817	26,8	25,3
1,8175	25,2	22,2
1,818	20,7	19,7
1,8185	14,1	18,3
1,819	6,9	17,8
1,8195	0,4	18,2
1,82	-4,8	19,2
1,8205	-8,8	20,7
1,821	-11,9	22,1
1,8215	-14,3	22,6
1,822	-16,0	22,0
1,8225	-17,1	20,7
1,823	-17,5	19,1
1,8235	-17,3	17,8
1,824	-16,4	17,1
1,8245	-15,3	17,5
1,825	-14,6	19,1
1,8255	-14,7	21,7
1,826	-15,9	24,6
1,8265	-18,1	27,0
1,827	-20,6	28,2
1,8275	-23,0	27,9
1,828	-25,6	26,6
1,8285	-28,4	24,6
1,829	-30,9	22,7
1,8295	-32,3	21,9
1,83	-31,9	22,9
1,8305	-30,0	25,6
1,831	-26,7	29,0
1,8315	-22,8	32,0
1,832	-19,7	33,9
1,8325	-18,3	34,2
1,833	-18,1	32,6
1,8335	-17,7	29,6
1,834	-15,9	25,9
1,8345	-12,5	22,6
1,835	-8,4	20,5
1,8355	-4,8	19,9
1,836	-2,6	20,7
1,8365	-1,7	22,4
1,837	-2,0	24,8
1,8375	-3,8	26,8
1,838	-7,3	27,7
1,8385	-11,7	27,0
1,839	-15,6	25,2
1,8395	-17,4	22,9
1,84	-16,6	20,6
1,8405	-13,3	18,7
1,841	-7,9	18,0
1,8415	-0,8	18,8
1,842	7,3	21,2
1,8425	15,4	24,2
1,843	21,8	26,8
1,8435	25,2	28,1
1,844	25,1	28,0
1,8445	21,3	26,9
1,845	14,6	25,1
1,8455	6,3	23,0
1,846	-1,4	21,3
1,8465	-7,0	20,9
1,847	-10,2	21,9
1,8475	-11,4	23,9
1,848	-11,3	26,1
1,8485	-10,2	27,7
1,849	-7,6	28,0
1,8495	-3,6	27,1
1,85	1,5	25,3
1,8505	6,6	23,2
1,851	10,4	21,1
1,8515	12,1	19,3
1,852	11,6	18,4
1,8525	9,6	18,5
1,853	6,8	19,6
1,8535	3,8	21,6
1,854	0,5	23,8
1,8545	-2,5	25,5
1,855	-5,2	25,8
1,8555	-7,3	24,3
1,856	-9,0	21,9
1,8565	-10,2	19,6
1,857	-11,0	17,9
1,8575	-11,3	17,2
1,858	-10,8	17,8
1,8585	-9,7	19,8
1,859	-8,1	22,8
1,8595	-6,3	25,9
1,86	-4,6	27,9
1,8605	-3,3	28,2
1,861	-2,3	26,8
1,8615	-1,8	24,6
1,862	-1,6	22,1
1,8625	-1,3	20,2
1,863	-0,9	19,7
1,8635	-0,3	21,0
1,864	0,3	23,9
1,8645	0,4	27,4
1,865	0,1	30,5
1,8655	-0,6	32,3
1,866	-1,6	32,6
1,8665	-2,9	31,5
1,867	-4,2	29,3
1,8675	-4,6	26,8
1,868	-4,1	24,3
1,8685	-3,2	22,7
1,869	-2,3	22,1
1,8695	-2,0	22,6
1,87	-2,1	24,0
1,8705	-2,1	25,9
1,871	-1,8	27,5
1,8715	0,0	27,7
1,872	4,0	26,1
1,8725	10,2	23,1
1,873	17,3	19,8
1,8735	23,2	17,3
1,874	26,6	16,1
1,8745	26,8	16,7
1,875	24,6	19,0
1,8755	20,8	22,4
1,876	16,7	25,8
1,8765	13,6	28,4
1,877	12,5	29,5
1,8775	13,8	29,3
1,878	16,6	28,3
1,8785	18,8	26,9
1,879	18,7	25,4
1,8795	16,4	24,2
1,88	12,7	24,1
1,8805	9,0	25,1
1,881	6,2	26,8
1,8815	4,4	28,3
1,882	2,5	29,3
1,8825	-0,8	29,1
1,883	-6,6	27,5
1,8835	-14,1	24,9
1,884	-21,8	21,8
1,8845	-28,1	19,0
1,885	-31,9	17,5
1,8855	-33,5	17,7
1,886	-33,9	19,1
1,8865	-34,3	21,5
1,887	-35,0	24,3
1,8875	-35,5	26,8
1,888	-35,0	27,8
1,8885	-32,9	26,8
1,889	-29,6	24,3
1,8895	-25,6	21,3
1,89	-21,3	18,7
1,8905	-16,9	16,9
1,891	-12,8	16,3
1,8915	-9,6	17,0
1,892	-7,1	18,7
1,8925	-5,0	21,0
1,893	-3,4	23,3
1,8935	-2,3	24,6
1,894	-2,2	24,5
1,8945	-3,1	23,2
1,895	-5,0	20,9
1,8955	-7,7	18,4
1,896	-11,0	16,5
1,8965	-15,0	16,1
1,897	-19,8	17,3
1,8975	-25,1	19,7
1,898	-29,8	22,4
1,8985	-32,9	24,8
1,899	-33,9	26,1
1,8995	-32,6	25,6
1,9	-29,2	23,4
1,9005	-24,2	20,1
1,901	-18,6	16,7
1,9015	-12,8	14,3
1,902	-7,3	13,4
1,9025	-2,5	14,1
1,903	1,2	15,8
1,9035	3,0	18,2
1,904	2,9	20,6
1,9045	1,6	21,9
1,905	-0,0	21,2
1,9055	-1,2	18,7
1,906	-1,3	15,3
1,9065	-0,5	12,1
1,907	1,1	9,9
1,9075	3,5	9,1
1,908	6,7	9,9
1,9085	10,6	12,3
1,909	15,3	15,3
1,9095	20,8	18,2
1,91	26,6	20,1
1,9105	31,4	20,6
1,911	34,4	20,1
1,9115	35,1	18,5
1,912	33,7	16,0
1,9125	30,2	13,2
1,913	25,1	11,3
1,9135	19,2	11,5
1,914	13,4	13,6
1,9145	8,2	16,7
1,915	3,8	19,8
1,9155	0,3	22,1
1,916	-2,4	23,1
1,9165	-4,4	22,7
1,917	-5,8	21,1
1,9175	-7,0	18,7
1,918	-8,6	16,5
1,9185	-10,8	15,2
1,919	-13,2	15,2
1,9195	-15,3	16,3
1,92	-16,8	18,1
1,9205	-17,3	20,0
1,921	-16,8	21,6
1,9215	-15,1	22,2
1,922	-12,5	21,4
1,9225	-9,2	19,4
1,923	-5,8	16,7
1,9235	-3,5	13,9
1,924	-3,8	12,0
1,9245	-6,9	11,7
1,925	-11,1	13,0
1,9255	-14,2	15,7
1,926	-15,0	18,6
1,9265	-13,9	20,9
1,927	-12,0	21,8
1,9275	-10,3	20,9
1,928	-9,3	18,7
1,9285	-8,6	15,8
1,929	-7,7	12,9
1,9295	-6,0	11,3
1,93	-3,3	11,7
1,9305	0,7	13,8
1,931	6,3	16,7
1,9315	13,0	19,4
1,932	19,0	21,3
1,9325	22,8	22,2
1,933	23,5	21,8
1,9335	21,3	20,2
1,934	17,3	17,7
1,9345	12,9	15,3
1,935	9,2	14,0
1,9355	6,3	14,3
1,936	3,6	15,7
1,9365	0,5	17,6
1,937	-3,1	19,6
1,9375	-6,8	21,2
1,938	-9,9	21,6
1,9385	-11,9	20,5
1,939	-12,7	18,3
1,9395	-12,3	15,5
1,94	-11,3	12,7
1,9405	-10,2	10,4
1,941	-9,5	9,4
1,9415	-9,6	10,1
1,942	-10,5	12,5
1,9425	-11,8	15,8
1,943	-12,8	19,1
1,9435	-13,3	21,4
1,944	-12,9	22,5
1,9445	-11,8	22,8
1,945	-10,3	22,1
1,9455	-8,9	20,7
1,946	-7,9	19,1
1,9465	-7,5	18,6
1,947	-8,7	19,6
1,9475	-12,0	21,8
1,948	-17,3	24,1
1,9485	-23,3	25,6
1,949	-28,9	25,8
1,9495	-32,8	24,5
1,95	-34,8	22,0
1,9505	-35,3	18,8
1,951	-35,0	15,8
1,9515	-34,3	13,7
1,952	-33,3	13,0
1,9525	-31,4	13,8
1,953	-28,7	15,8
1,9535	-25,1	18,7
1,954	-21,0	21,5
1,9545	-16,5	23,2
1,955	-11,8	22,8
1,9555	-7,3	20,7
1,956	-3,4	17,8
1,9565	-0,3	15,0
1,957	2,3	13,0
1,9575	5,2	12,1
1,958	8,7	12,6
1,9585	13,0	14,5
1,959	17,4	17,2
1,9595	21,3	19,8
1,96	24,1	21,3
1,9605	25,4	21,4
1,961	24,9	20,1
1,9615	22,7	17,9
1,962	19,1	15,3
1,9625	14,9	12,8
1,963	10,1	11,5
1,9635	5,0	11,8
1,964	-0,3	13,7
1,9645	-5,0	16,4
1,965	-9,2	19,2
1,9655	-12,8	21,4
1,966	-16,0	22,3
1,9665	-18,7	21,5
1,967	-20,9	19,3
1,9675	-22,2	16,3
1,968	-22,3	13,6
1,9685	-21,1	12,0
1,969	-19,4	11,9
1,9695	-18,3	12,8
1,97	-18,0	14,5
1,9705	-18,1	16,3
1,971	-18,0	17,7
1,9715	-17,4	17,9
1,972	-16,4	16,5
1,9725	-14,9	14,3
1,973	-13,0	12,2
1,9735	-10,3	10,8
1,974	-5,8	10,7
1,9745	1,2	12,1
1,975	10,2	14,9
1,9755	19,8	18,5
1,976	27,9	21,9
1,9765	33,1	24,1
1,977	34,8	24,5
1,9775	33,3	23,3
1,978	29,6	21,0
1,9785	24,4	18,2
1,979	18,3	15,8
1,9795	11,5	14,5
1,98	3,9	15,0
1,9805	-3,8	17,1
1,981	-10,8	19,8
1,9815	-16,3	22,5
1,982	-20,0	24,4
1,9825	-22,4	25,1
1,983	-23,9	24,6
1,9835	-24,8	22,8
1,984	-24,9	20,2
1,9845	-24,5	17,5
1,985	-23,6	15,8
1,9855	-22,5	15,6
1,986	-21,4	16,8
1,9865	-20,6	18,9
1,987	-20,6	21,6
1,9875	-21,6	24,1
1,988	-23,4	25,2
1,9885	-25,6	24,3
1,989	-27,7	22,0
1,9895	-29,3	19,4
1,99	-30,2	17,3
1,9905	-30,1	16,1
1,991	-28,8	16,1
1,9915	-26,0	17,4
1,992	-21,8	19,8
1,9925	-17,3	22,7
1,993	-13,9	25,0
1,9935	-12,7	26,1
1,994	-13,7	25,5
1,9945	-15,8	23,6
1,995	-17,1	20,7
1,9955	-16,7	17,7
1,996	-14,4	15,5
1,9965	-10,7	15,1
1,997	-6,4	16,6
1,9975	-2,1	19,1
1,998	1,5	21,8
1,9985	3,9	24,0
1,999	5,0	24,9
1,9995	5,3	24,3
2	5,9	22,1
2,0005	7,5	19,1
2,001	9,9	16,2
2,0015	11,9	14,4
2,002	12,7	14,3
2,0025	12,2	15,5
2,003	10,5	17,7
2,0035	7,9	20,3
2,004	5,1	22,9
2,0045	2,3	24,6
2,005	-0,3	24,5
2,0055	-2,7	22,8
2,006	-4,6	20,3
2,0065	-5,7	18,2
2,007	-6,1	16,7
2,0075	-6,1	16,1
2,008	-6,3	16,7
2,0085	-7,4	18,4
2,009	-9,3	20,8
2,0095	-11,9	23,2
2,01	-14,8	24,6
2,0105	-17,4	24,6
2,011	-19,0	23,3
2,0115	-18,7	21,3
2,012	-15,6	19,0
2,0125	-9,7	17,2
2,013	-1,8	16,9
2,0135	6,5	18,2
2,014	13,2	20,6
2,0145	16,8	23,1
2,015	17,1	24,8
2,0155	14,5	25,3
2,016	10,5	24,6
2,0165	6,2	23,0
2,017	2,1	20,9
2,0175	-2,1	18,9
2,018	-6,6	17,7
2,0185	-11,8	17,6
2,019	-17,2	18,8
2,0195	-22,7	20,6
2,02	-27,8	22,8
2,0205	-32,3	24,5
2,021	-35,5	25,3
2,0215	-37,4	24,6
2,022	-38,0	22,6
2,0225	-37,7	19,8
2,023	-37,0	16,9
2,0235	-36,0	14,7
2,024	-34,7	13,7
2,0245	-32,8	14,2
2,025	-29,9	16,2
2,0255	-26,3	19,2
2,026	-22,4	22,3
2,0265	-19,2	24,3
2,027	-17,1	24,9
2,0275	-16,3	24,0
2,028	-15,6	22,3
2,0285	-14,5	20,4
2,029	-13,1	18,7
2,0295	-12,1	18,2
2,03	-11,7	19,3
2,0305	-11,8	21,9
2,031	-12,0	24,8
2,0315	-12,0	27,3
2,032	-11,8	29,0
2,0325	-11,3	29,8
2,033	-10,6	29,2
2,0335	-9,5	27,4
2,034	-8,3	24,8
2,0345	-7,3	22,3
2,035	-6,6	20,8
2,0355	-6,3	20,8
2,036	-6,6	21,9
2,0365	-7,2	23,6
2,037	-7,8	25,4
2,0375	-8,2	26,7
2,038	-8,6	26,8
2,0385	-9,0	25,1
2,039	-9,7	22,3
2,0395	-10,9	19,3
2,04	-12,8	17,0
2,0405	-15,0	16,3
2,041	-17,2	17,0
2,0415	-19,3	18,9
2,042	-20,9	21,6
2,0425	-21,6	24,5
2,043	-20,9	26,7
2,0435	-18,9	27,5
2,044	-16,2	26,9
2,0445	-13,4	25,3
2,045	-11,5	23,5
2,0455	-11,0	22,0
2,046	-12,0	21,1
2,0465	-13,8	21,3
2,047	-15,0	22,6
2,0475	-13,5	24,7
2,048	-8,1	26,8
2,0485	0,7	28,5
2,049	10,4	29,4
2,0495	18,7	29,3
2,05	23,8	28,0
2,0505	25,6	25,8
2,051	24,6	23,0
2,0515	21,8	20,8
2,052	17,9	19,8
2,0525	13,0	20,2
2,053	7,3	21,5
2,0535	1,2	23,5
2,054	-4,9	25,4
2,0545	-11,0	26,6
2,055	-17,3	26,1
2,0555	-24,2	24,2
2,056	-31,8	21,6
2,0565	-39,8	19,1
2,057	-47,9	17,4
2,0575	-55,5	16,8
2,058	-62,1	17,4
2,0585	-67,4	18,8
2,059	-71,9	20,3
2,0595	-75,4	21,5
2,06	-77,1	21,8
2,0605	-76,5	21,5
2,061	-73,8	20,9
2,0615	-69,4	20,3
2,062	-63,9	19,3
2,0625	-58,1	18,1
2,063	-52,4	17,4
2,0635	-47,0	17,9
2,064	-41,8	19,3
2,0645	-37,2	21,2
2,065	-34,1	22,9
2,0655	-32,9	24,1
2,066	-32,9	24,0
2,0665	-32,4	22,6
2,067	-30,3	20,2
2,0675	-25,7	17,3
2,068	-18,7	14,9
2,0685	-10,5	13,7
2,069	-2,3	13,8
2,0695	4,8	15,1
2,07	10,5	17,0
2,0705	15,1	19,0
2,071	19,0	20,3
2,0715	22,5	20,1
2,072	24,7	18,6
2,0725	24,7	16,3
2,073	21,8	14,0
2,0735	16,9	12,3
2,074	11,0	11,4
2,0745	5,3	11,8
2,075	0,2	13,7
2,0755	-4,5	16,9
2,076	-9,1	20,4
2,0765	-13,9	23,0
2,077	-19,0	24,0
2,0775	-23,8	23,5
2,078	-27,5	22,0
2,0785	-29,2	20,3
2,079	-28,3	18,7
2,0795	-25,3	18,3
2,08	-21,6	19,4
2,0805	-18,4	22,1
2,081	-15,8	25,4
2,0815	-13,1	28,4
2,082	-10,0	30,6
2,0825	-6,4	31,4
2,083	-2,5	30,3
2,0835	1,6	27,6
2,084	6,0	23,8
2,0845	10,1	20,1
2,085	13,3	17,7
2,0855	14,9	17,1
2,086	15,0	17,8
2,0865	13,8	19,4
2,087	11,8	21,2
2,0875	9,3	22,5
2,088	6,5	22,8
2,0885	3,8	21,9
2,089	1,4	20,0
2,0895	0,0	17,8
2,09	-0,5	15,8
2,0905	-0,6	14,5
2,091	-0,9	14,5
2,0915	-1,7	16,0
2,092	-2,6	18,8
2,0925	-3,0	22,2
2,093	-2,1	25,1
2,0935	0,2	26,8
2,094	3,2	26,7
2,0945	6,2	25,1
2,095	8,2	22,5
2,0955	9,0	19,5
2,096	9,1	17,1
2,0965	9,5	16,3
2,097	11,1	17,4
2,0975	13,6	19,7
2,098	16,3	22,2
2,0985	18,8	23,9
2,099	20,1	24,3
2,0995	20,0	23,3
2,1	18,5	21,1
2,1005	16,1	18,3
2,101	13,2	15,7
2,1015	9,6	14,0
2,102	5,2	13,6
2,1025	-0,5	14,3
2,103	-7,1	15,4
2,1035	-14,1	16,4
2,104	-21,0	17,0
2,1045	-27,2	16,7
2,105	-32,4	15,5
2,1055	-37,1	13,6
2,106	-41,3	11,7
2,1065	-45,0	10,1
2,107	-48,0	9,2
2,1075	-50,0	9,2
2,108	-50,6	10,5
2,1085	-49,7	13,2
2,109	-46,9	16,6
2,1095	-42,5	19,8
2,11	-37,2	21,7
2,1105	-32,2	21,9
2,111	-28,8	20,7
2,1115	-27,0	18,4
2,112	-26,4	15,6
2,1125	-26,4	13,1
2,113	-26,0	11,8
2,1135	-24,7	12,0
2,114	-22,4	13,3
2,1145	-19,4	15,2
2,115	-16,2	16,8
2,1155	-12,4	17,6
2,116	-7,1	17,3
2,1165	0,0	15,8
2,117	8,0	13,6
2,1175	15,1	11,4
2,118	19,8	10,2
2,1185	21,8	10,1
2,119	21,7	11,1
2,1195	19,8	12,6
2,12	16,7	14,1
2,1205	12,3	15,6
2,121	7,3	16,8
2,1215	2,5	17,0
2,122	-1,5	15,8
2,1225	-3,8	13,6
2,123	-3,9	11,1
2,1235	-2,1	8,9
2,124	0,2	7,6
2,1245	1,1	7,7
2,125	-0,2	9,3
2,1255	-3,3	12,1
2,126	-7,0	15,1
2,1265	-10,7	17,0
2,127	-14,1	17,2
2,1275	-17,3	16,0
2,128	-20,2	13,9
2,1285	-22,6	11,6
2,129	-24,2	9,7
2,1295	-25,1	9,2
2,13	-25,8	10,5
2,1305	-26,2	13,2
2,131	-26,3	16,3
2,1315	-25,6	18,8
2,132	-23,8	20,2
2,1325	-21,0	20,3
2,133	-17,9	18,8
2,1335	-15,2	15,8
2,134	-13,0	12,1
2,1345	-11,3	8,6
2,135	-10,4	6,3
2,1355	-10,6	5,9
2,136	-11,7	7,2
2,1365	-13,2	9,7
2,137	-14,1	12,6
2,1375	-13,8	15,3
2,138	-12,2	16,5
2,1385	-9,7	15,6
2,139	-7,0	13,0
2,1395	-4,6	9,9
2,14	-3,0	7,4
2,1405	-2,9	6,1
2,141	-4,4	6,1
2,1415	-7,3	7,7
2,142	-10,7	10,7
2,1425	-14,0	14,3
2,143	-16,4	17,6
2,1435	-18,0	19,7
2,144	-19,0	20,1
2,1445	-20,0	19,2
2,145	-21,6	17,3
2,1455	-23,3	15,1
2,146	-24,4	13,1
2,1465	-24,1	12,4
2,147	-22,2	13,6
2,1475	-19,1	16,0
2,148	-15,6	18,8
2,1485	-12,2	21,1
2,149	-9,5	22,3
2,1495	-7,9	22,3
2,15	-7,5	21,0
2,1505	-7,7	19,0
2,151	-7,9	16,7
2,1515	-8,5	15,0
2,152	-9,9	14,8
2,1525	-12,6	16,0
2,153	-15,9	18,5
2,1535	-19,1	21,4
2,154	-22,3	24,0
2,1545	-26,5	25,4
2,155	-31,8	24,9
2,1555	-37,0	22,7
2,156	-40,3	19,7
2,1565	-40,3	17,2
2,157	-37,4	15,8
2,1575	-32,5	15,7
2,158	-26,6	16,8
2,1585	-20,1	18,8
2,159	-12,8	21,2
2,1595	-5,1	23,4
2,16	2,6	24,8
2,1605	9,3	24,9
2,161	14,4	24,0
2,1615	17,8	22,4
2,162	19,9	20,2
2,1625	21,3	18,4
2,163	22,3	18,0
2,1635	22,6	19,4
2,164	21,8	22,2
2,1645	19,9	25,3
2,165	17,3	28,0
2,1655	14,3	29,9
2,166	11,3	30,4
2,1665	8,1	29,2
2,167	5,1	26,6
2,1675	2,1	23,5
2,168	-0,6	20,9
2,1685	-1,7	19,6
2,169	-0,4	19,4
2,1695	2,8	20,1
2,17	5,8	21,3
2,1705	6,8	22,9
2,171	5,0	24,2
2,1715	0,8	24,3
2,172	-4,8	23,0
2,1725	-10,6	20,8
2,173	-16,1	18,3
2,1735	-21,8	16,3
2,174	-28,2	15,2
2,1745	-35,3	15,5
2,175	-42,3	17,3
2,1755	-48,0	20,1
2,176	-51,7	23,0
2,1765	-52,7	25,3
2,177	-51,7	26,3
2,1775	-49,5	26,1
2,178	-46,9	25,2
2,1785	-43,9	23,7
2,179	-39,8	22,1
2,1795	-33,8	20,8
2,18	-25,9	20,8
2,1805	-16,5	21,9
2,181	-6,5	23,9
2,1815	3,2	26,2
2,182	11,6	28,1
2,1825	17,3	28,9
2,183	19,8	28,1
2,1835	19,0	25,9
2,184	16,2	23,0
2,1845	12,8	20,4
2,185	9,4	18,7
2,1855	5,8	18,4
2,186	1,4	19,0
2,1865	-3,9	20,4
2,187	-9,8	22,2
2,1875	-15,3	23,7
2,188	-19,5	24,0
2,1885	-22,4	22,6
2,189	-24,6	19,7
2,1895	-26,9	16,3
2,19	-29,4	13,8
2,1905	-31,8	12,8
2,191	-33,7	13,4
2,1915	-34,4	15,6
2,192	-33,7	18,9
2,1925	-32,1	22,3
2,193	-30,6	24,9
2,1935	-30,3	26,3
2,194	-31,8	26,4
2,1945	-34,3	25,7
2,195	-37,2	24,6
2,1955	-39,3	23,1
2,196	-40,3	21,9
2,1965	-39,9	21,6
2,197	-38,0	22,7
2,1975	-34,4	24,7
2,198	-29,7	26,7
2,1985	-24,1	27,9
2,199	-17,4	27,7
2,1995	-8,6	26,1
2,2	2,5	23,4
2,2005	14,1	20,6
2,201	24,1	18,1
2,2015	31,4	16,6
2,202	36,1	16,3
2,2025	38,2	17,3
2,203	37,1	19,0
2,2035	32,5	21,3
2,204	25,2	23,5
2,2045	16,6	25,1
2,205	8,2	25,3
2,2055	0,0	24,1
2,206	-8,1	22,1
2,2065	-15,9	20,1
2,207	-22,5	18,3
2,2075	-26,9	17,5
2,208	-28,8	18,2
2,2085	-28,1	20,4
2,209	-25,3	23,6
2,2095	-21,1	26,9
2,21	-16,2	29,1
2,2105	-11,7	29,7
2,211	-8,1	28,9
2,2115	-5,8	27,1
2,212	-4,9	24,8
2,2125	-4,8	22,8
2,213	-4,7	22,3
2,2135	-3,8	23,5
2,214	-1,7	25,9
2,2145	1,0	28,5
2,215	3,5	30,4
2,2155	5,4	31,6
2,216	7,1	31,7
2,2165	9,3	30,6
2,217	12,4	28,5
2,2175	15,5	25,9
2,218	17,6	23,9
2,2185	17,6	23,1
2,219	15,1	23,8
2,2195	10,4	25,5
2,22	4,7	27,9
2,2205	-0,6	30,4
2,221	-4,8	32,1
2,2215	-8,7	32,1
2,222	-13,2	30,3
2,2225	-18,6	27,3
2,223	-24,4	24,1
2,2235	-29,8	21,6
2,224	-33,9	20,1
2,2245	-36,4	20,1
2,225	-36,5	21,7
2,2255	-33,5	24,3
2,226	-27,4	27,2
2,2265	-19,5	29,3
2,227	-11,8	30,3
2,2275	-5,6	29,9
2,228	-1,8	28,5
2,2285	-0,7	26,3
2,229	-1,8	23,9
2,2295	-4,2	22,4
2,23	-7,1	22,5
2,2305	-9,9	24,1
2,231	-12,1	26,4
2,2315	-13,8	28,7
2,232	-15,2	30,3
2,2325	-16,6	31,0
2,233	-18,7	30,6
2,2335	-21,7	29,3
2,234	-25,3	27,4
2,2345	-28,5	25,3
2,235	-30,6	23,9
2,2355	-31,6	23,9
2,236	-32,2	25,4
2,2365	-32,5	27,6
2,237	-32,4	29,8
2,2375	-31,4	31,6
2,238	-29,4	32,1
2,2385	-27,0	30,8
2,239	-24,1	27,8
2,2395	-20,6	24,3
2,24	-16,3	21,3
2,2405	-12,3	19,6
2,241	-9,8	19,5
2,2415	-9,0	20,8
2,242	-9,3	23,5
2,2425	-9,5	26,9
2,243	-9,3	30,0
2,2435	-8,9	31,8
2,244	-8,7	31,8
2,2445	-8,7	30,7
2,245	-8,9	28,8
2,2455	-9,0	26,6
2,246	-8,4	24,9
2,2465	-6,3	24,5
2,247	-3,2	25,6
2,2475	-0,1	27,8
2,248	1,6	30,2
2,2485	1,6	32,1
2,249	0,5	33,3
2,2495	-0,8	33,2
2,25	-1,8	32,0
2,2505	-2,5	29,9
2,251	-3,0	27,4
2,2515	-3,2	25,4
2,252	-3,2	24,8
2,2525	-3,3	25,4
2,253	-3,7	27,1
2,2535	-4,6	29,3
2,254	-5,4	31,6
2,2545	-5,6	33,1
2,255	-5,2	33,1
2,2555	-5,1	31,4
2,256	-6,1	28,7
2,2565	-8,3	25,8
2,257	-11,3	23,5
2,2575	-14,3	22,4
2,258	-16,7	22,8
2,2585	-18,4	24,8
2,259	-19,7	27,6
2,2595	-20,8	30,3
2,26	-21,7	31,9
2,2605	-22,5	31,9
2,261	-23,2	30,7
2,2615	-23,9	28,8
2,262	-24,7	26,5
2,2625	-25,0	24,6
2,263	-24,2	23,8
2,2635	-22,3	24,7
2,264	-19,5	27,2
2,2645	-16,5	30,4
2,265	-13,7	33,3
2,2655	-11,1	35,0
2,266	-8,9	34,8
2,2665	-7,2	32,9
2,267	-5,7	30,0
2,2675	-4,3	27,1
2,268	-3,5	24,8
2,2685	-3,6	23,8
2,269	-4,8	24,0
2,2695	-6,3	25,0
2,27	-7,3	26,6
2,2705	-7,5	28,5
2,271	-6,8	30,2
2,2715	-5,3	30,6
2,272	-3,5	29,2
2,2725	-2,0	26,6
2,273	-1,2	23,9
2,2735	-1,2	21,9
2,274	-1,8	21,1
2,2745	-2,4	21,4
2,275	-2,8	22,7
2,2755	-3,2	24,8
2,276	-4,3	27,4
2,2765	-7,2	29,6
2,277	-12,0	30,8
2,2775	-18,7	30,6
2,278	-26,2	29,5
2,2785	-33,3	27,8
2,279	-38,7	26,0
2,2795	-41,8	24,7
2,28	-42,2	24,6
2,2805	-40,2	26,0
2,281	-36,1	28,3
2,2815	-30,7	30,6
2,282	-24,7	32,4
2,2825	-18,9	33,3
2,283	-14,0	32,6
2,2835	-9,9	30,2
2,284	-6,4	26,5
2,2845	-3,8	22,6
2,285	-2,1	19,7
2,2855	-0,9	18,8
2,286	0,2	19,6
2,2865	1,7	21,6
2,287	3,3	24,1
2,2875	4,5	26,5
2,288	5,0	27,9
2,2885	4,9	28,0
2,289	4,2	26,6
2,2895	2,7	24,5
2,29	1,0	22,2
2,2905	0,2	20,8
2,291	1,1	20,7
2,2915	3,4	22,3
2,292	6,5	24,9
2,2925	10,1	27,7
2,293	13,8	29,9
2,2935	16,9	31,0
2,294	18,8	30,7
2,2945	19,3	29,4
2,295	18,3	27,3
2,2955	16,4	24,9
2,296	14,5	23,0
2,2965	13,0	22,5
2,297	12,1	23,8
2,2975	11,4	26,3
2,298	10,3	29,0
2,2985	8,4	30,9
2,299	5,8	31,8
2,2995	2,7	31,4
2,3	-0,5	30,0
2,3005	-4,1	27,7
2,301	-8,1	25,2
2,3015	-12,5	23,3
2,302	-16,1	22,6
2,3025	-17,0	23,0
2,303	-14,3	24,3
2,3035	-9,5	26,1
2,304	-4,8	28,0
2,3045	-2,2	29,3
2,305	-2,2	29,1
2,3055	-4,5	27,3
2,306	-8,1	24,6
2,3065	-11,7	22,0
2,307	-14,5	20,3
2,3075	-16,4	20,0
2,308	-17,8	21,1
2,3085	-18,7	23,5
2,309	-18,9	26,8
2,3095	-18,7	29,8
2,31	-18,3	31,9
2,3105	-17,7	32,5
2,311	-16,4	31,7
2,3115	-13,8	29,7
2,312	-10,2	27,1
2,3125	-6,0	24,8
2,313	-2,1	24,0
2,3135	0,8	25,0
2,314	2,2	27,2
2,3145	1,9	29,3
2,315	0,6	30,8
2,3155	-0,8	31,2
2,316	-1,5	30,4
2,3165	-1,8	28,4
2,317	-2,0	25,6
2,3175	-2,5	22,5
2,318	-3,3	20,3
2,3185	-4,0	19,5
2,319	-4,1	20,2
2,3195	-3,2	21,6
2,32	-0,9	23,2
2,3205	2,8	24,6
2,321	6,9	25,3
2,3215	10,2	24,6
2,322	12,5	22,7
2,3225	13,9	19,9
2,323	14,6	17,3
2,3235	14,2	15,3
2,324	12,4	14,3
2,3245	9,4	14,6
2,325	6,3	16,1
2,3255	3,8	18,8
2,326	1,9	21,9
2,3265	0,6	24,4
2,327	-0,7	25,6
2,3275	-2,3	25,4
2,328	-4,6	24,1
2,3285	-6,9	22,0
2,329	-8,8	19,7
2,3295	-9,9	18,0
2,33	-10,3	17,6
2,3305	-10,7	18,6
2,331	-11,3	20,7
2,3315	-12,2	23,0
2,332	-13,0	25,1
2,3325	-12,9	26,5
2,333	-11,7	26,7
2,3335	-9,3	25,6
2,334	-6,4	23,4
2,3345	-3,6	21,2
2,335	-1,1	19,8
2,3355	1,0	19,9
2,336	3,2	21,1
2,3365	5,8	23,1
2,337	8,6	25,3
2,3375	10,8	26,9
2,338	11,7	27,2
2,3385	11,1	25,8
2,339	9,4	23,2
2,3395	7,3	20,4
2,34	5,1	17,9
2,3405	3,3	16,3
2,341	2,5	16,0
2,3415	3,2	17,1
2,342	5,1	19,3
2,3425	7,3	21,8
2,343	8,9	24,2
2,3435	9,3	25,6
2,344	8,7	25,6
2,3445	7,2	24,3
2,345	5,2	22,1
2,3455	3,1	19,5
2,346	1,0	17,3
2,3465	-1,0	16,5
2,347	-2,5	17,6
2,3475	-3,1	20,0
2,348	-2,7	22,6
2,3485	-2,0	24,7
2,349	-1,9	25,6
2,3495	-2,9	24,8
2,35	-4,8	22,4
2,3505	-7,5	19,1
2,351	-10,9	16,1
2,3515	-14,8	14,4
2,352	-18,7	14,7
2,3525	-22,3	16,6
2,353	-25,7	19,3
2,3535	-28,9	22,3
2,354	-31,7	25,0
2,3545	-33,6	26,4
2,355	-34,4	25,7
2,3555	-34,5	23,2
2,356	-34,0	19,7
2,3565	-32,9	16,4
2,357	-31,3	14,0
2,3575	-29,5	13,2
2,358	-27,5	14,1
2,3585	-25,5	16,8
2,359	-23,6	20,6
2,3595	-22,2	24,2
2,36	-21,3	26,7
2,3605	-21,1	27,7
2,361	-21,8	27,8
2,3615	-23,1	27,1
2,362	-24,4	25,8
2,3625	-24,9	24,4
2,363	-24,0	23,9
2,3635	-21,9	24,9
2,364	-18,6	27,3
2,3645	-14,3	30,3
2,365	-9,3	33,0
2,3655	-3,9	34,7
2,366	1,4	34,9
2,3665	6,3	33,8
2,367	9,9	31,5
2,3675	12,2	28,7
2,368	13,5	26,2
2,3685	14,2	24,5
2,369	14,8	24,1
2,3695	15,2	24,8
2,37	15,2	26,4
2,3705	14,7	28,6
2,371	13,8	30,1
2,3715	12,8	29,9
2,372	11,9	27,8
2,3725	11,5	24,5
2,373	11,2	21,3
2,3735	10,4	19,3
2,374	8,5	18,9
2,3745	5,4	19,9
2,375	1,3	22,1
2,3755	-2,9	25,0
2,376	-5,9	27,9
2,3765	-6,6	30,1
2,377	-4,2	30,9
2,3775	0,7	30,2
2,378	6,3	28,4
2,3785	10,8	26,0
2,379	14,5	23,6
2,3795	18,4	21,9
2,38	23,6	21,7
2,3805	29,5	23,1
2,381	34,5	25,4
2,3815	37,4	27,6
2,382	37,3	29,0
2,3825	34,3	29,3
2,383	29,3	28,4
2,3835	23,6	26,1
2,384	18,3	23,0
2,3845	13,6	20,0
2,385	9,5	18,3
2,3855	5,5	18,3
2,386	1,2	19,9
2,3865	-3,2	22,5
2,387	-7,3	25,4
2,3875	-10,9	27,6
2,388	-13,7	28,2
2,3885	-15,7	26,9
2,389	-16,8	24,4
2,3895	-17,1	21,5
2,39	-16,6	19,1
2,3905	-15,5	17,6
2,391	-13,9	17,5
2,3915	-11,9	18,9
2,392	-9,4	21,5
2,3925	-6,5	24,6
2,393	-3,8	27,3
2,3935	-1,9	28,8
2,394	-1,0	28,8
2,3945	-0,7	27,8
2,395	-0,8	26,0
2,3955	-0,9	24,0
2,396	-1,0	22,3
2,3965	-0,9	21,8
2,397	-0,2	22,9
2,3975	1,2	25,1
2,398	2,8	27,5
2,3985	4,1	29,4
2,399	4,5	30,2
2,3995	4,1	29,6
2,4	3,3	27,4
2,4005	2,6	24,2
2,401	2,2	21,2
2,4015	2,0	19,2
2,402	2,3	18,6
2,4025	2,6	19,1
2,403	2,8	20,4
2,4035	3,0	22,2
2,404	3,2	24,2
2,4045	3,5	25,5
2,405	4,1	25,4
2,4055	4,9	23,7
2,406	5,8	21,1
2,4065	6,5	18,8
2,407	6,1	17,5
2,4075	4,3	17,4
2,408	0,9	18,7
2,4085	-3,0	21,3
2,409	-6,4	24,6
2,4095	-9,1	27,7
2,41	-11,2	29,4
2,4105	-13,4	29,4
2,411	-16,3	28,0
2,4115	-20,1	25,9
2,412	-24,3	23,4
2,4125	-27,8	21,1
2,413	-30,0	19,8
2,4135	-31,0	20,3
2,414	-30,7	22,3
2,4145	-29,2	24,8
2,415	-26,3	26,7
2,4155	-22,2	27,5
2,416	-17,0	26,9
2,4165	-11,5	25,2
2,417	-6,3	22,6
2,4175	-2,3	19,7
2,418	0,3	17,1
2,4185	1,8	15,7
2,419	3,1	16,0
2,4195	4,6	17,6
2,42	6,3	20,1
2,4205	8,3	23,0
2,421	10,4	25,3
2,4215	12,1	26,3
2,422	13,2	25,6
2,4225	13,0	23,8
2,423	11,4	21,7
2,4235	8,8	19,9
2,424	6,2	19,1
2,4245	4,6	19,5
2,425	3,9	21,2
2,4255	2,8	23,6
2,426	0,5	26,0
2,4265	-3,1	27,6
2,427	-7,1	27,9
2,4275	-10,2	26,9
2,428	-11,5	24,8
2,4285	-10,7	22,3
2,429	-7,8	19,8
2,4295	-2,6	18,5
2,43	4,5	19,0
2,4305	12,5	21,3
2,431	20,2	24,3
2,4315	26,5	27,1
2,432	31,4	28,7
2,4325	35,1	29,0
2,433	37,1	27,8
2,4335	37,1	25,3
2,434	35,0	22,0
2,4345	31,7	18,6
2,435	28,0	16,0
2,4355	24,2	15,2
2,436	19,4	16,0
2,4365	12,9	18,3
2,437	4,5	21,3
2,4375	-4,8	24,0
2,438	-13,6	25,2
2,4385	-20,2	24,2
2,439	-23,3	21,3
2,4395	-22,7	18,1
2,44	-19,8	15,7
2,4405	-16,6	14,8
2,441	-13,8	15,6
2,4415	-11,2	17,6
2,442	-8,3	20,0
2,4425	-4,8	21,8
2,443	-1,0	22,6
2,4435	2,7	22,2
2,444	5,8	20,8
2,4445	7,4	18,8
2,445	7,1	16,3
2,4455	5,3	13,9
2,446	2,9	12,5
2,4465	0,8	13,1
2,447	-0,4	15,7
2,4475	-0,9	19,6
2,448	-0,8	23,6
2,4485	-0,4	26,5
2,449	0,3	27,7
2,4495	1,4	27,2
2,45	2,4	25,1
2,4505	2,9	21,9
2,451	2,8	18,4
2,4515	2,8	15,6
2,452	3,1	14,4
2,4525	4,0	14,8
2,453	5,5	16,3
2,4535	7,3	18,2
2,454	9,2	20,0
2,4545	11,0	20,9
2,455	12,3	20,4
2,4555	12,9	18,4
2,456	12,9	15,9
2,4565	12,2	13,5
2,457	11,1	12,0
2,4575	10,0	11,6
2,458	8,9	12,6
2,4585	7,8	14,8
2,459	6,5	17,7
2,4595	5,2	20,5
2,46	4,2	22,8
2,4605	3,4	23,9
2,461	2,4	23,8
2,4615	0,6	22,8
2,462	-2,3	21,3
2,4625	-6,2	19,8
2,463	-10,9	19,2
2,4635	-15,5	19,8
2,464	-18,9	21,4
2,4645	-20,5	23,4
2,465	-20,6	25,1
2,4655	-20,2	26,0
2,466	-20,2	25,8
2,4665	-20,6	24,3
2,467	-21,0	21,5
2,4675	-20,8	17,8
2,468	-20,2	14,3
2,4685	-19,8	11,8
2,469	-20,1	10,8
2,4695	-20,8	11,3
2,47	-21,4	13,4
2,4705	-21,2	16,3
2,471	-19,8	18,8
2,4715	-16,8	19,4
2,472	-12,0	17,9
2,4725	-5,8	14,9
2,473	1,1	11,8
2,4735	7,6	9,3
2,474	13,1	8,2
2,4745	17,7	9,0
2,475	21,2	11,7
2,4755	23,3	15,6
2,476	23,7	19,6
2,4765	23,0	22,8
2,477	21,8	24,5
2,4775	20,4	24,7
2,478	18,5	23,4
2,4785	16,2	21,2
2,479	14,6	18,7
2,4795	15,5	17,2
2,48	20,1	17,6
2,4805	27,6	19,6
2,481	35,1	22,3
2,4815	39,9	24,9
2,482	40,7	26,7
2,4825	37,7	27,3
2,483	32,1	26,4
2,4835	25,8	24,3
2,484	20,2	21,4
2,4845	16,3	18,8
2,485	14,1	17,5
2,4855	13,3	17,8
2,486	13,5	19,6
2,4865	15,0	22,2
2,487	17,7	25,0
2,4875	20,4	27,4
2,488	21,3	28,6
2,4885	19,8	28,1
2,489	16,5	26,3
2,4895	12,4	23,7
2,49	8,5	21,4
2,4905	5,0	19,8
2,491	1,8	19,6
2,4915	-1,3	20,7
2,492	-4,2	22,9
2,4925	-6,8	25,8
2,493	-8,9	28,1
2,4935	-10,1	28,9
2,494	-10,7	28,1
2,4945	-11,2	26,2
2,495	-11,8	23,8
2,4955	-12,2	21,5
2,496	-11,3	19,9
2,4965	-8,4	20,0
2,497	-3,5	21,8
2,4975	2,2	24,5
2,498	6,9	27,2
2,4985	10,2	29,4
2,499	12,8	30,8
2,4995	15,5	30,9
2,5	18,0	29,2
2,5005	18,7	26,4
2,501	17,3	23,4
2,5015	15,1	21,2
2,502	13,8	20,3
2,5025	14,0	20,8
2,503	14,9	22,2
2,5035	15,7	24,3
2,504	15,8	26,3
2,5045	15,2	27,8
2,505	14,0	27,9
2,5055	12,2	26,5
2,506	10,3	24,2
2,5065	9,1	21,6
2,507	9,7	19,3
2,5075	11,7	18,3
2,508	13,0	19,0
2,5085	11,4	21,1
2,509	6,6	23,9
2,5095	0,5	26,4
2,51	-4,8	27,7
2,5105	-8,7	27,7
2,511	-11,5	26,5
2,5115	-13,7	24,5
2,512	-15,5	21,8
2,5125	-16,2	19,1
2,513	-15,1	17,7
2,5135	-12,1	18,3
2,514	-7,6	21,0
2,5145	-2,5	24,8
2,515	3,1	28,4
2,5155	9,8	30,8
2,516	17,7	31,2
2,5165	25,8	29,7
2,517	32,5	26,8
2,5175	36,9	23,8
2,518	39,0	21,6
2,5185	39,0	21,2
2,519	37,7	22,4
2,5195	36,1	24,7
2,52	35,2	27,1
2,5205	35,2	29,2
2,521	35,8	30,3
2,5215	35,9	29,8
2,522	34,7	27,8
2,5225	32,0	25,1
2,523	28,4	22,6
2,5235	24,7	20,8
2,524	21,3	20,0
2,5245	18,5	20,5
2,525	16,3	22,4
2,5255	15,1	25,3
2,526	14,8	28,4
2,5265	15,0	30,6
2,527	15,7	31,5
2,5275	16,7	31,1
2,528	17,6	29,7
2,5285	18,3	27,8
2,529	18,6	26,2
2,5295	18,8	25,6
2,53	19,1	26,7
2,5305	19,6	29,2
2,531	20,3	32,3
2,5315	20,7	34,9
2,532	20,5	36,3
2,5325	19,6	35,8
2,533	18,2	33,6
2,5335	17,7	30,3
2,534	18,8	27,0
2,5345	21,5	24,6
2,535	24,8	23,7
2,5355	27,9	24,3
2,536	30,3	25,9
2,5365	32,3	27,9
2,537	33,8	30,0
2,5375	34,7	31,6
2,538	34,3	31,9
2,5385	32,4	30,5
2,539	28,9	28,0
2,5395	24,2	25,5
2,54	19,2	23,5
2,5405	15,2	22,3
2,541	12,8	21,9
2,5415	12,0	22,5
2,542	12,6	24,0
2,5425	13,8	26,0
2,543	14,6	27,7
2,5435	14,2	28,5
2,544	12,8	28,4
2,5445	10,9	27,4
2,545	8,7	25,9
2,5455	6,3	24,1
2,546	3,9	22,7
2,5465	2,2	22,6
2,547	1,8	24,1
2,5475	2,5	26,5
2,548	3,5	28,9
2,5485	4,1	30,7
2,549	3,7	31,6
2,5495	2,3	31,5
2,55	0,2	30,1
2,5505	-1,3	27,7
2,551	-1,6	25,1
2,5515	-0,3	23,3
2,552	1,7	22,7
2,5525	3,8	23,3
2,553	6,0	24,8
2,5535	8,1	26,8
2,554	9,9	28,8
2,5545	10,8	30,3
2,555	10,6	30,6
2,5555	9,3	29,5
2,556	7,4	27,4
2,5565	6,1	25,3
2,557	6,2	23,7
2,5575	8,1	23,0
2,558	12,2	23,7
2,5585	18,1	25,4
2,559	24,7	27,8
2,5595	30,0	29,9
2,56	31,8	31,0
2,5605	29,4	30,8
2,561	23,5	29,6
2,5615	15,9	28,0
2,562	8,0	26,1
2,5625	0,8	24,3
2,563	-5,4	23,4
2,5635	-10,2	24,0
2,564	-13,4	26,2
2,5645	-14,7	29,3
2,565	-14,0	32,3
2,5655	-11,7	34,2
2,566	-7,8	34,2
2,5665	-2,6	32,5
2,567	3,7	29,6
2,5675	9,8	26,3
2,568	14,5	23,5
2,5685	16,9	22,0
2,569	17,2	22,3
2,5695	16,0	23,9
2,57	14,6	26,3
2,5705	14,0	28,7
2,571	14,4	30,4
2,5715	15,3	30,8
2,572	15,9	29,6
2,5725	15,8	27,4
2,573	14,9	25,3
2,5735	14,0	23,8
2,574	13,8	23,3
2,5745	15,0	24,2
2,575	17,6	26,1
2,5755	20,5	28,7
2,576	22,7	31,2
2,5765	23,4	33,0
2,577	22,3	33,4
2,5775	19,4	32,3
2,578	15,0	29,9
2,5785	10,5	26,8
2,579	7,9	24,0
2,5795	8,2	22,6
2,58	11,3	23,2
2,5805	16,5	25,8
2,581	22,6	29,6
2,5815	28,9	33,3
2,582	34,7	36,0
2,5825	39,1	36,9
2,583	41,9	35,8
2,5835	42,7	33,3
2,584	41,9	29,8
2,5845	40,0	26,3
2,585	37,7	23,8
2,5855	35,4	23,2
2,586	33,8	24,3
2,5865	33,8	27,0
2,587	36,4	30,3
2,5875	41,6	33,4
2,588	47,9	35,0
2,5885	53,2	34,4
2,589	55,9	32,0
2,5895	55,3	29,0
2,59	51,5	26,4
2,5905	45,3	25,0
2,591	37,9	25,4
2,5915	30,4	27,7
2,592	23,2	31,3
2,5925	16,3	34,9
2,593	9,8	37,5
2,5935	3,8	38,1
2,594	-0,8	36,7
2,5945	-3,6	34,2
2,595	-4,8	31,1
2,5955	-5,3	28,0
2,596	-6,1	25,6
2,5965	-7,4	24,7
2,597	-8,8	25,8
2,5975	-10,1	28,2
2,598	-10,7	31,3
2,5985	-10,4	34,0
2,599	-8,8	35,6
2,5995	-5,6	35,5
2,6	-0,9	33,8
2,6005	5,1	31,1
2,601	11,7	28,2
2,6015	17,8	26,0
2,602	22,3	25,3
2,6025	24,5	26,1
2,603	24,8	28,1
2,6035	24,2	30,7
2,604	24,0	33,3
2,6045	24,7	34,8
2,605	25,8	34,4
2,6055	26,8	32,3
2,606	26,9	29,3
2,6065	26,4	26,3
2,607	26,1	23,9
2,6075	26,4	22,6
2,608	26,9	22,8
2,6085	27,3	24,7
2,609	27,3	27,6
2,6095	27,0	30,5
2,61	26,3	32,4
2,6105	24,8	32,9
2,611	22,6	32,2
2,6115	20,0	30,8
2,612	17,7	29,0
2,6125	16,4	27,4
2,613	16,4	26,6
2,6135	17,8	27,3
2,614	20,5	29,3
2,6145	23,8	31,8
2,615	27,7	34,1
2,6155	31,4	35,7
2,616	34,2	36,3
2,6165	35,4	35,9
2,617	35,0	34,3
2,6175	32,9	32,1
2,618	29,4	29,9
2,6185	24,8	28,5
2,619	19,6	28,4
2,6195	14,5	29,6
2,62	10,0	31,7
2,6205	6,8	34,0
2,621	5,6	35,6
2,6215	7,3	35,5
2,622	11,9	33,6
2,6225	18,3	30,6
2,623	25,1	27,5
2,6235	31,2	25,2
2,624	35,8	24,2
2,6245	38,6	25,0
2,625	39,6	27,4
2,6255	39,1	30,6
2,626	37,8	33,7
2,6265	36,1	36,0
2,627	34,8	37,1
2,6275	34,3	37,2
2,628	34,3	36,5
2,6285	34,0	35,0
2,629	33,1	33,0
2,6295	31,3	31,5
2,63	28,1	31,2
2,6305	23,4	32,2
2,631	18,3	34,0
2,6315	14,7	35,7
2,632	14,0	37,0
2,6325	16,1	37,4
2,633	19,7	36,6
2,6335	23,4	34,8
2,634	26,4	32,6
2,6345	28,1	30,5
2,635	28,3	29,3
2,6355	27,3	29,3
2,636	26,3	30,8
2,6365	26,8	33,2
2,637	30,4	35,8
2,6375	36,8	37,9
2,638	43,8	38,3
2,6385	49,0	36,8
2,639	51,2	33,9
2,6395	50,8	30,7
2,64	48,5	28,2
2,6405	45,3	26,9
2,641	42,0	27,1
2,6415	39,4	28,9
2,642	37,6	31,7
2,6425	35,7	34,5
2,643	33,3	36,6
2,6435	30,5	37,3
2,644	28,2	36,6
2,6445	27,2	34,9
2,645	27,4	32,7
2,6455	28,1	30,2
2,646	28,0	28,1
2,6465	26,8	27,2
2,647	25,2	27,9
2,6475	24,4	30,0
2,648	25,2	32,6
2,6485	26,9	34,9
2,649	28,4	36,2
2,6495	29,1	36,2
2,65	29,2	34,8
2,6505	28,8	32,4
2,651	28,1	29,6
2,6515	26,8	27,3
2,652	24,9	26,2
2,6525	22,5	26,7
2,653	19,8	28,3
2,6535	17,0	30,5
2,654	14,5	32,9
2,6545	12,6	34,4
2,655	11,8	34,3
2,6555	13,1	32,3
2,656	16,6	29,2
2,6565	21,6	26,2
2,657	27,1	23,9
2,6575	32,5	22,9
2,658	38,0	23,5
2,6585	43,3	25,6
2,659	47,9	28,6
2,6595	50,9	31,4
2,66	52,2	33,0
2,6605	51,7	33,0
2,661	49,7	31,8
2,6615	47,1	29,8
2,662	44,5	27,3
2,6625	42,3	25,3
2,663	40,3	24,8
2,6635	37,9	26,3
2,664	34,7	29,5
2,6645	30,7	33,3
2,665	26,6	36,4
2,6655	23,8	37,9
2,666	23,3	37,6
2,6665	25,4	35,7
2,667	28,8	32,9
2,6675	32,0	29,9
2,668	34,5	27,5
2,6685	36,6	26,4
2,669	38,8	26,9
2,6695	41,3	28,7
2,67	43,4	31,0
2,6705	44,9	33,2
2,671	45,1	34,6
2,6715	43,8	34,7
2,672	41,1	33,4
2,6725	37,4	31,2
2,673	33,5	28,8
2,6735	30,3	26,7
2,674	28,6	25,4
2,6745	28,6	25,1
2,675	29,6	26,0
2,6755	30,9	28,1
2,676	32,0	30,4
2,6765	32,7	32,3
2,677	33,4	33,0
2,6775	34,6	32,4
2,678	36,4	30,8
2,6785	38,1	28,6
2,679	39,0	26,3
2,6795	39,0	24,9
2,68	38,4	25,1
2,6805	37,5	26,9
2,681	36,3	29,6
2,6815	34,8	32,3
2,682	33,2	34,3
2,6825	31,8	35,4
2,683	31,0	35,0
2,6835	30,6	33,3
2,684	30,5	30,8
2,6845	30,1	28,3
2,685	29,3	26,8
2,6855	28,0	26,8
2,686	26,2	28,5
2,6865	24,0	31,3
2,687	21,5	34,5
2,6875	19,6	37,4
2,688	19,2	38,6
2,6885	20,5	37,4
2,689	23,3	34,4
2,6895	26,4	30,8
2,69	28,5	28,0
2,6905	29,3	26,4
2,691	29,0	26,3
2,6915	28,7	27,6
2,692	29,1	30,0
2,6925	30,5	32,9
2,693	33,2	35,5
2,6935	37,5	37,0
2,694	43,6	37,1
2,6945	50,7	35,8
2,695	57,0	33,8
2,6955	61,3	31,4
2,696	63,2	29,8
2,6965	62,9	29,9
2,697	61,2	31,7
2,6975	58,7	34,4
2,698	55,8	37,0
2,6985	52,5	38,9
2,699	48,5	39,5
2,6995	43,7	38,8
2,7	37,9	36,8
2,7005	31,7	34,0
2,701	25,7	31,3
2,7015	20,4	29,6
2,702	16,4	29,3
2,7025	13,8	30,2
2,703	12,9	31,7
2,7035	13,3	33,3
2,704	14,6	34,6
2,7045	16,0	35,0
2,705	17,1	33,9
2,7055	18,3	31,6
2,706	20,1	29,2
2,7065	22,6	27,6
2,707	25,3	27,1
2,7075	27,8	27,8
2,708	29,6	29,8
2,7085	30,9	32,7
2,709	31,9	36,1
2,7095	32,9	38,9
2,71	34,2	40,2
2,7105	36,2	40,0
2,711	38,9	38,8
2,7115	42,1	37,0
2,712	45,5	34,7
2,7125	48,7	32,5
2,713	51,5	31,3
2,7135	53,8	31,6
2,714	55,5	33,3
2,7145	56,1	35,7
2,715	55,4	38,1
2,7155	52,9	39,8
2,716	48,0	40,1
2,7165	40,6	38,8
2,717	31,7	36,4
2,7175	22,7	33,6
2,718	14,9	31,5
2,7185	8,6	30,7
2,719	3,7	31,5
2,7195	0,4	33,1
2,72	-1,0	35,1
2,7205	-0,5	37,2
2,721	0,8	38,7
2,7215	2,7	38,9
2,722	5,2	37,6
2,7225	9,3	35,2
2,723	15,2	32,6
2,7235	21,9	30,6
2,724	28,5	29,7
2,7245	33,9	30,5
2,725	37,2	32,9
2,7255	38,2	36,7
2,726	37,5	40,5
2,7265	36,2	43,4
2,727	35,7	44,5
2,7275	36,5	43,7
2,728	38,5	41,4
2,7285	40,8	38,5
2,729	43,1	35,8
2,7295	45,2	34,3
2,73	47,1	34,6
2,7305	48,4	36,7
2,731	48,3	39,6
2,7315	46,3	42,5
2,732	42,7	44,6
2,7325	38,5	45,5
2,733	34,3	44,9
2,7335	30,7	43,2
2,734	28,6	40,8
2,7345	28,5	38,6
2,735	29,8	37,3
2,7355	31,1	37,3
2,736	31,5	38,3
2,7365	32,0	39,8
2,737	33,8	41,2
2,7375	37,6	42,1
2,738	42,6	41,9
2,7385	47,9	40,4
2,739	52,5	38,1
2,7395	55,4	36,1
2,74	56,1	34,8
2,7405	54,4	34,7
2,741	50,8	35,4
2,7415	46,0	36,9
2,742	40,8	39,3
2,7425	36,3	42,0
2,743	33,1	44,3
2,7435	31,4	45,7
2,744	29,8	45,8
2,7445	27,2	44,7
2,745	23,2	42,9
2,7455	18,7	41,0
2,746	15,2	39,5
2,7465	13,3	39,1
2,747	12,6	40,1
2,7475	12,9	42,1
2,748	14,4	44,3
2,7485	17,3	46,0
2,749	21,3	46,6
2,7495	25,8	45,8
2,75	30,1	43,5
2,7505	33,8	40,3
2,751	36,8	37,3
2,7515	38,7	35,0
2,752	39,7	33,9
2,7525	39,7	34,1
2,753	39,1	35,4
2,7535	37,8	37,5
2,754	35,9	39,8
2,7545	33,1	41,2
2,755	29,2	40,7
2,7555	24,5	38,4
2,756	19,5	34,9
2,7565	14,9	31,5
2,757	11,7	29,1
2,7575	10,2	28,4
2,758	9,4	29,8
2,7585	8,8	32,8
2,759	8,5	36,4
2,7595	9,3	39,3
2,76	11,7	40,4
2,7605	15,2	39,9
2,761	19,1	38,3
2,7615	23,2	36,1
2,762	27,8	33,6
2,7625	32,4	31,7
2,763	36,3	31,2
2,7635	38,7	32,6
2,764	39,6	35,1
2,7645	39,8	37,7
2,765	39,8	39,9
2,7655	40,3	41,3
2,766	40,9	41,7
2,7665	41,1	40,8
2,767	40,6	38,5
2,7675	39,2	35,5
2,768	37,9	32,8
2,7685	37,8	31,2
2,769	40,1	31,1
2,7695	45,0	32,0
2,77	51,8	33,6
2,7705	58,7	35,2
2,771	63,8	36,3
2,7715	65,5	36,3
2,772	63,3	35,0
2,7725	58,2	32,5
2,773	51,8	29,7
2,7735	46,0	27,2
2,774	41,8	25,8
2,7745	39,3	26,0
2,775	38,3	27,7
2,7755	38,2	30,6
2,776	38,1	33,9
2,7765	38,1	36,6
2,777	38,3	38,0
2,7775	38,8	38,2
2,778	39,4	37,3
2,7785	39,6	35,7
2,779	39,8	33,7
2,7795	40,3	31,9
2,78	41,2	31,4
2,7805	41,8	32,3
2,781	41,2	34,3
2,7815	39,1	36,4
2,782	36,3	38,1
2,7825	33,7	38,5
2,783	32,2	37,3
2,7835	31,7	34,9
2,784	31,6	32,0
2,7845	31,3	29,4
2,785	30,7	27,7
2,7855	30,0	27,4
2,786	29,4	28,3
2,7865	28,9	30,1
2,787	28,4	32,7
2,7875	27,7	35,2
2,788	26,8	36,4
2,7885	25,6	35,8
2,789	24,0	33,7
2,7895	22,6	31,0
2,79	21,8	28,6
2,7905	21,6	27,1
2,791	21,9	26,9
2,7915	22,2	28,3
2,792	22,3	30,8
2,7925	22,1	34,1
2,793	21,5	37,0
2,7935	20,8	38,6
2,794	20,1	38,6
2,7945	19,8	37,3
2,795	20,6	35,4
2,7955	22,6	33,3
2,796	25,6	31,8
2,7965	28,8	31,4
2,797	31,6	32,6
2,7975	33,2	34,9
2,798	33,8	37,6
2,7985	33,8	40,0
2,799	33,6	41,3
2,7995	33,5	40,8
2,8	33,8	38,8
2,8005	35,5	35,8
2,801	39,6	33,2
2,8015	46,0	31,8
2,802	53,4	32,0
2,8025	60,3	33,3
2,803	64,9	35,4
2,8035	66,7	37,9
2,804	65,8	40,3
2,8045	62,9	41,6
2,805	59,0	41,3
2,8055	54,8	39,5
2,806	50,8	37,2
2,8065	47,0	35,0
2,807	43,1	33,3
2,8075	38,4	32,5
2,808	31,9	33,1
2,8085	23,4	35,0
2,809	13,7	38,0
2,8095	4,5	41,1
2,81	-2,3	43,2
2,8105	-6,1	43,5
2,811	-7,0	42,5
2,8115	-5,9	40,6
2,812	-3,3	38,4
2,8125	0,3	36,5
2,813	6,2	35,8
2,8135	16,1	36,9
2,814	30,6	39,5
2,8145	47,4	42,6
2,815	62,9	45,4
2,8155	74,5	47,3
2,816	81,7	47,8
2,8165	84,9	46,9
2,817	85,3	44,9
2,8175	83,8	42,3
2,818	81,2	40,0
2,8185	77,5	38,8
2,819	73,2	39,1
2,8195	68,5	40,8
2,82	64,2	42,9
2,8205	60,4	45,0
2,821	57,3	46,3
2,8215	54,3	46,0
2,822	50,8	44,0
2,8225	46,7	41,0
2,823	41,8	37,9
2,8235	36,8	35,5
2,824	32,7	34,1
2,8245	30,1	34,1
2,825	29,5	35,5
2,8255	30,5	38,3
2,826	32,9	41,5
2,8265	36,2	44,1
2,827	39,6	45,0
2,8275	42,6	44,3
2,828	44,6	42,3
2,8285	45,2	39,7
2,829	45,1	37,0
2,8295	44,7	35,3
2,83	44,4	35,7
2,8305	44,2	38,0
2,831	43,8	41,4
2,8315	43,5	44,7
2,832	44,0	46,9
2,8325	46,3	47,7
2,833	50,4	46,7
2,8335	55,0	44,1
2,834	58,9	40,7
2,8345	62,1	37,5
2,835	65,2	35,6
2,8355	68,3	35,3
2,836	70,4	36,2
2,8365	70,3	38,0
2,837	68,4	40,1
2,8375	65,8	42,0
2,838	63,3	43,0
2,8385	60,5	42,6
2,839	56,3	40,8
2,8395	49,9	38,5
2,84	41,2	36,4
2,8405	31,1	34,8
2,841	21,7	34,1
2,8415	14,6	34,8
2,842	10,3	36,6
2,8425	8,3	39,2
2,843	8,3	41,4
2,8435	9,8	42,5
2,844	12,1	42,2
2,8445	14,6	40,9
2,845	16,8	38,9
2,8455	18,5	36,5
2,846	19,8	34,3
2,8465	20,6	33,1
2,847	21,3	33,4
2,8475	21,7	35,2
2,848	21,4	37,4
2,8485	19,3	39,3
2,849	15,7	40,3
2,8495	11,3	39,5
2,85	7,9	37,4
2,8505	6,5	34,4
2,851	7,5	31,8
2,8515	10,6	30,3
2,852	15,5	30,4
2,8525	21,5	31,5
2,853	28,7	33,1
2,8535	37,0	34,7
2,854	46,7	36,1
2,8545	57,5	36,7
2,855	68,6	36,0
2,8555	78,8	34,3
2,856	86,9	32,1
2,8565	92,3	30,2
2,857	94,9	28,7
2,8575	95,0	28,3
2,858	93,1	29,7
2,8585	89,6	33,1
2,859	84,9	37,5
2,8595	79,6	41,4
2,86	74,4	43,6
2,8605	69,2	43,9
2,861	63,4	42,8
2,8615	57,1	40,9
2,862	50,3	38,5
2,8625	43,8	36,1
2,863	37,7	34,7
2,8635	32,1	34,9
2,864	26,5	36,8
2,8645	20,3	39,1
2,865	13,8	41,1
2,8655	7,8	42,5
2,866	3,2	43,0
2,8665	1,0	42,2
2,867	1,2	39,9
2,8675	3,4	36,7
2,868	7,3	33,6
2,8685	12,5	31,6
2,869	17,8	31,3
2,8695	22,6	32,3
2,87	26,6	34,3
2,8705	30,2	36,7
2,871	33,8	38,6
2,8715	37,8	39,1
2,872	41,6	37,8
2,8725	45,0	35,3
2,873	47,6	32,5
2,8735	49,4	30,0
2,874	51,1	28,7
2,8745	53,1	29,0
2,875	55,5	31,0
2,8755	57,7	34,2
2,876	59,0	37,6
2,8765	58,8	40,1
2,877	57,4	41,3
2,8775	55,1	41,3
2,878	52,6	40,4
2,8785	50,5	39,1
2,879	49,0	37,8
2,8795	48,0	37,3
2,88	47,3	38,1
2,8805	46,6	40,2
2,881	46,3	42,8
2,8815	46,5	45,2
2,882	47,5	46,9
2,8825	48,9	47,5
2,883	50,5	46,7
2,8835	51,8	44,6
2,884	52,8	41,6
2,8845	53,3	38,8
2,885	53,4	37,0
2,8855	53,4	36,3
2,886	53,8	36,8
2,8865	54,3	38,2
2,887	54,7	40,5
2,8875	54,6	43,3
2,888	53,6	45,2
2,8885	51,8	45,2
2,889	49,6	43,4
2,8895	47,7	40,8
2,89	46,4	38,5
2,8905	45,9	37,2
2,891	46,1	37,3
2,8915	47,3	38,9
2,892	49,3	41,6
2,8925	51,3	44,7
2,893	52,5	47,2
2,8935	52,5	48,4
2,894	51,2	48,1
2,8945	49,2	46,8
2,895	47,2	44,8
2,8955	45,8	42,5
2,896	45,0	40,8
2,8965	44,5	40,2
2,897	44,2	41,1
2,8975	44,2	42,9
2,898	44,6	44,9
2,8985	46,3	46,4
2,899	50,6	46,8
2,8995	58,2	45,8
2,9	68,3	43,3
2,9005	78,5	40,2
2,901	86,1	37,6
2,9015	89,7	36,1
2,902	89,1	36,0
2,9025	85,6	36,9
2,903	80,7	38,5
2,9035	75,3	40,5
2,904	70,3	42,6
2,9045	65,6	43,9
2,905	61,1	43,6
2,9055	56,3	41,6
2,906	51,3	38,8
2,9065	46,6	36,2
2,907	42,7	34,3
2,9075	40,2	33,7
2,908	39,4	34,4
2,9085	40,0	36,4
2,909	41,5	39,3
2,9095	43,0	42,3
2,91	43,8	44,7
2,9105	43,3	45,7
2,911	41,8	45,2
2,9115	40,4	43,5
2,912	40,4	41,1
2,9125	42,4	38,8
2,913	45,7	37,9
2,9135	49,1	39,0
2,914	52,1	42,0
2,9145	54,5	45,7
2,915	56,7	48,8
2,9155	59,0	50,5
2,916	61,2	50,6
2,9165	63,3	49,2
2,917	64,9	46,7
2,9175	66,1	43,8
2,918	66,7	41,6
2,9185	66,7	40,6
2,919	66,3	40,8
2,9195	65,7	41,8
2,92	65,4	43,3
2,9205	65,6	44,9
2,921	66,4	46,0
2,9215	67,5	45,8
2,922	68,3	44,0
2,9225	68,4	40,8
2,923	67,7	37,3
2,9235	66,2	34,4
2,924	64,1	33,1
2,9245	61,5	33,4
2,925	58,3	35,1
2,9255	54,4	37,5
2,926	50,6	40,1
2,9265	47,3	41,9
2,927	44,8	42,6
2,9275	43,6	42,1
2,928	43,6	40,8
2,9285	44,7	39,0
2,929	46,6	36,8
2,9295	49,5	35,1
2,93	53,6	35,0
2,9305	58,5	36,5
2,931	63,1	38,8
2,9315	66,2	41,1
2,932	67,4	42,6
2,9325	67,0	42,9
2,933	65,0	41,4
2,9335	60,7	38,6
2,934	53,7	34,9
2,9345	44,3	31,6
2,935	33,7	29,6
2,9355	23,4	29,5
2,936	14,9	30,9
2,9365	8,9	33,2
2,937	5,4	35,7
2,9375	3,9	37,9
2,938	3,9	39,0
2,9385	4,9	38,2
2,939	6,5	35,9
2,9395	8,8	32,8
2,94	11,9	30,0
2,9405	15,3	28,3
2,941	19,0	28,4
2,9415	22,9	30,1
2,942	27,8	32,9
2,9425	34,4	36,1
2,943	42,1	38,7
2,9435	49,1	40,1
2,944	53,8	39,8
2,9445	55,6	38,3
2,945	55,0	36,3
2,9455	53,1	34,4
2,946	51,1	33,2
2,9465	49,8	33,5
2,947	49,6	35,4
2,9475	49,8	38,2
2,948	49,9	40,9
2,9485	49,4	42,8
2,949	47,9	43,5
2,9495	45,7	42,6
2,95	43,6	40,3
2,9505	42,3	37,1
2,951	42,2	33,8
2,9515	42,9	31,5
2,952	44,3	30,8
2,9525	45,9	31,7
2,953	47,5	33,5
2,9535	49,0	36,0
2,954	50,3	38,3
2,9545	51,1	39,7
2,955	51,1	39,3
2,9555	49,7	37,2
2,956	47,3	34,4
2,9565	44,9	31,6
2,957	43,6	29,7
2,9575	44,1	29,0
2,958	46,3	29,6
2,9585	49,8	31,2
2,959	53,5	33,2
2,9595	56,4	35,1
2,96	57,7	36,3
2,9605	57,1	36,5
2,961	55,3	35,9
2,9615	52,9	34,7
2,962	50,5	33,1
2,9625	48,3	31,6
2,963	46,4	31,2
2,9635	45,6	32,4
2,964	46,2	34,8
2,9645	48,1	37,1
2,965	50,5	38,6
2,9655	52,5	39,0
2,966	53,2	38,2
2,9665	52,7	36,3
2,967	51,3	33,8
2,9675	49,5	31,3
2,968	47,8	29,7
2,9685	45,7	29,2
2,969	42,6	29,9
2,9695	37,7	31,6
2,97	31,3	33,9
2,9705	25,5	36,5
2,971	22,7	38,5
2,9715	23,5	38,7
2,972	26,9	36,9
2,9725	30,9	33,8
2,973	34,5	30,8
2,9735	37,6	28,6
2,974	40,6	28,1
2,9745	43,8	29,5
2,975	47,1	32,4
2,9755	50,2	36,1
2,976	52,9	39,4
2,9765	54,6	41,5
2,977	55,1	41,9
2,9775	54,4	41,1
2,978	52,7	39,7
2,9785	50,6	38,1
2,979	48,3	36,4
2,9795	46,1	35,5
2,98	44,1	36,1
2,9805	42,7	38,3
2,981	42,1	41,6
2,9815	42,2	44,9
2,982	43,1	47,5
2,9825	44,6	48,6
2,983	46,4	47,9
2,9835	47,9	45,5
2,984	48,8	41,6
2,9845	49,2	37,4
2,985	49,6	34,2
2,9855	51,1	32,7
2,986	54,3	32,9
2,9865	59,4	34,3
2,987	65,2	36,6
2,9875	69,9	39,1
2,988	72,1	40,7
2,9885	71,4	40,6
2,989	68,4	38,7
2,9895	63,5	35,9
2,99	57,0	33,2
2,9905	50,0	31,4
2,991	44,0	31,5
2,9915	39,8	33,8
2,992	36,8	37,8
2,9925	34,4	42,3
2,993	32,3	45,8
2,9935	30,7	47,3
2,994	30,1	46,8
2,9945	30,6	45,1
2,995	31,8	42,8
2,9955	33,8	40,6
2,996	36,8	39,1
2,9965	41,0	39,1
2,997	46,5	40,6
2,9975	53,3	43,1
2,998	61,0	45,7
2,9985	68,6	47,8
2,999	74,6	49,0
2,9995	78,0	48,8
3	78,5	47,2
3,0005	76,2	44,4
3,001	71,4	41,3
3,0015	64,8	38,8
3,002	57,1	37,6
3,0025	49,0	37,8
3,003	41,1	39,1
3,0035	34,0	41,0
3,004	27,8	43,0
3,0045	22,4	44,3
3,005	17,9	44,2
3,0055	14,9	42,9
3,006	14,3	41,2
3,0065	16,5	39,8
3,007	20,9	39,0
3,0075	26,1	39,2
3,008	31,0	40,5
3,0085	35,0	42,8
3,009	38,0	45,6
3,0095	40,2	48,2
3,01	41,6	49,7
3,0105	42,4	49,8
3,011	42,8	48,5
3,0115	42,9	46,0
3,012	43,1	42,8
3,0125	43,7	39,8
3,013	45,3	38,2
3,0135	48,0	38,5
3,014	51,1	40,4
3,0145	54,2	43,0
3,015	57,4	45,5
3,0155	60,8	47,1
3,016	64,0	47,2
3,0165	66,0	45,8
3,017	66,1	43,3
3,0175	64,1	40,6
3,018	60,7	38,7
3,0185	56,7	38,3
3,019	52,5	39,6
3,0195	48,4	42,0
3,02	44,4	44,8
3,0205	41,2	47,4
3,021	39,2	49,5
3,0215	39,1	50,2
3,022	40,6	49,3
3,0225	42,8	47,3
3,023	44,9	45,1
3,0235	46,4	43,4
3,024	46,9	42,6
3,0245	46,3	42,9
3,025	44,6	44,5
3,0255	42,0	47,1
3,026	38,4	50,1
3,0265	33,8	52,6
3,027	28,6	53,7
3,0275	23,6	53,1
3,028	19,3	51,3
3,0285	16,1	48,8
3,029	13,8	46,1
3,0295	12,3	44,2
3,03	10,9	44,1
3,0305	9,2	45,8
3,031	6,8	48,4
3,0315	3,8	50,9
3,032	0,4	52,6
3,0325	-2,5	53,0
3,033	-3,8	51,9
3,0335	-2,4	49,4
3,034	2,0	46,0
3,0345	8,2	42,8
3,035	14,4	40,9
3,0355	19,5	40,8
3,036	23,1	42,1
3,0365	26,2	44,1
3,037	29,4	46,4
3,0375	32,9	48,6
3,038	36,1	49,7
3,0385	38,5	49,1
3,039	40,2	47,0
3,0395	41,9	44,3
3,04	44,5	41,7
3,0405	48,4	39,9
3,041	53,4	39,1
3,0415	58,9	39,7
3,042	64,1	41,4
3,0425	67,8	43,8
3,043	69,2	46,1
3,0435	68,5	47,5
3,044	67,2	47,8
3,0445	66,2	47,1
3,045	65,4	45,8
3,0455	64,1	44,3
3,046	61,8	43,0
3,0465	58,6	42,7
3,047	55,3	43,8
3,0475	52,6	46,1
3,048	51,0	48,8
3,0485	50,5	51,1
3,049	50,7	52,3
3,0495	51,1	52,0
3,05	51,7	50,4
3,0505	52,3	47,9
3,051	53,2	45,5
3,0515	54,0	43,6
3,052	54,6	42,8
3,0525	54,5	43,0
3,053	53,9	44,0
3,0535	52,9	45,5
3,054	51,6	47,2
3,0545	50,0	48,5
3,055	48,1	48,8
3,0555	46,3	47,7
3,056	45,1	45,6
3,0565	44,7	43,3
3,057	45,1	41,2
3,0575	46,1	40,0
3,058	47,1	40,3
3,0585	47,7	41,7
3,059	47,6	43,9
3,0595	46,9	46,1
3,06	45,4	47,4
3,0605	43,2	47,6
3,061	40,7	46,6
3,0615	38,1	44,9
3,062	35,8	42,9
3,0625	33,9	41,0
3,063	32,3	40,0
3,0635	31,4	40,7
3,064	31,0	42,7
3,0645	31,4	45,3
3,065	32,3	47,6
3,0655	33,2	49,4
3,066	34,1	50,2
3,0665	35,1	49,8
3,067	36,3	48,3
3,0675	37,9	46,2
3,068	39,8	44,3
3,0685	41,9	43,4
3,069	43,9	44,0
3,0695	45,8	45,8
3,07	47,8	48,2
3,0705	49,9	50,7
3,071	52,5	52,5
3,0715	55,3	52,8
3,072	57,9	51,3
3,0725	59,9	48,8
3,073	60,6	46,5
3,0735	60,0	45,0
3,074	58,2	44,4
3,0745	55,8	44,7
3,075	53,3	46,2
3,0755	51,2	48,4
3,076	49,8	50,9
3,0765	49,4	52,7
3,077	49,7	53,3
3,0775	49,8	52,8
3,078	49,4	51,8
3,0785	48,2	50,6
3,079	46,4	49,4
3,0795	44,4	48,6
3,08	42,7	48,8
3,0805	41,8	50,2
3,081	41,5	52,3
3,0815	41,4	54,3
3,082	40,9	55,5
3,0825	39,7	55,4
3,083	37,5	53,8
3,0835	34,2	50,9
3,084	30,1	47,6
3,0845	25,5	44,4
3,085	21,1	42,1
3,0855	17,4	41,2
3,086	14,8	41,8
3,0865	13,5	43,5
3,087	13,6	45,7
3,0875	15,0	47,8
3,088	17,5	48,7
3,0885	20,5	48,0
3,089	23,5	45,9
3,0895	25,9	43,2
3,09	26,8	40,9
3,0905	25,5	39,9
3,091	22,0	40,4
3,0915	17,2	42,5
3,092	12,8	45,6
3,0925	10,2	48,9
3,093	9,8	51,4
3,0935	11,0	52,2
3,094	12,6	51,3
3,0945	13,9	49,4
3,095	14,8	47,1
3,0955	15,8	44,9
3,096	17,8	43,3
3,0965	21,4	43,1
3,097	26,4	44,4
3,0975	32,5	46,6
3,098	38,8	49,0
3,0985	45,0	50,7
3,099	50,4	51,3
3,0995	54,0	50,5
3,1	55,4	48,6
3,1005	55,0	45,8
3,101	53,8	42,9
3,1015	52,1	40,8
3,102	49,0	40,3
3,1025	43,9	41,2
3,103	37,5	43,1
3,1035	30,9	45,5
3,104	25,0	47,9
3,1045	20,6	49,5
3,105	17,9	49,5
3,1055	17,5	47,8
3,106	19,3	45,0
3,1065	23,2	42,2
3,107	28,9	40,1
3,1075	35,8	39,2
3,108	42,6	39,8
3,1085	48,4	41,9
3,109	52,6	45,2
3,1095	54,6	48,4
3,11	54,3	50,6
3,1105	53,1	51,0
3,111	53,4	50,0
3,1115	56,9	47,9
3,112	63,2	45,3
3,1125	69,9	42,9
3,113	74,9	41,6
3,1135	76,9	42,1
3,114	75,6	44,3
3,1145	71,5	47,3
3,115	65,7	50,2
3,1155	58,9	52,3
3,116	51,6	52,9
3,1165	44,3	52,0
3,117	37,4	49,6
3,1175	31,5	46,7
3,118	26,5	44,3
3,1185	22,4	43,2
3,119	19,3	43,6
3,1195	17,4	45,2
3,12	16,9	47,6
3,1205	17,6	50,2
3,121	18,9	52,2
3,1215	20,6	52,4
3,122	22,3	50,4
3,1225	23,7	47,0
3,123	25,1	43,2
3,1235	26,7	40,3
3,124	28,7	38,7
3,1245	30,7	38,8
3,125	32,3	40,0
3,1255	33,0	42,2
3,126	33,2	44,5
3,1265	33,3	46,1
3,127	33,7	46,3
3,1275	34,8	45,1
3,128	36,4	43,4
3,1285	38,3	41,6
3,129	39,7	39,9
3,1295	40,7	39,1
3,13	41,4	39,7
3,1305	42,1	41,8
3,131	42,9	44,8
3,1315	43,6	47,6
3,132	43,3	49,5
3,1325	41,2	49,9
3,133	37,4	48,6
3,1335	33,1	46,0
3,134	29,8	42,8
3,1345	28,1	40,0
3,135	27,5	38,5
3,1355	27,0	38,7
3,136	25,9	40,3
3,1365	24,1	42,5
3,137	21,4	44,9
3,1375	18,4	46,9
3,138	15,8	47,6
3,1385	13,5	46,7
3,139	11,4	44,3
3,1395	9,9	41,1
3,14	9,7	38,2
3,1405	11,7	36,0
3,141	16,5	35,2
3,1415	23,2	35,9
3,142	30,8	38,1
3,1425	38,1	41,1
3,143	44,8	44,1
3,1435	50,8	46,2
3,144	57,0	47,1
3,1445	64,5	46,7
3,145	75,0	45,3
3,1455	88,1	43,3
3,146	101,3	41,5
3,1465	111,3	41,0
3,147	116,3	42,3
3,1475	115,8	44,7
3,148	110,7	46,9
3,1485	102,4	48,2
3,149	92,8	48,0
3,1495	82,8	46,6
3,15	72,5	44,2
3,1505	61,6	41,4
3,151	50,4	38,7
3,1515	39,3	36,5
3,152	28,8	35,3
3,1525	19,7	35,3
3,153	12,8	36,0
3,1535	8,8	37,1
3,154	7,2	38,2
3,1545	7,1	38,5
3,155	7,2	37,5
3,1555	6,8	35,6
3,156	6,0	33,4
3,1565	5,6	31,5
3,157	6,3	30,2
3,1575	8,6	29,9
3,158	12,0	30,7
3,1585	16,2	32,7
3,159	20,7	35,4
3,1595	24,8	38,1
3,16	27,3	39,8
3,1605	27,3	40,3
3,161	25,4	39,7
3,1615	22,8	38,3
3,162	20,9	36,7
3,1625	20,5	35,2
3,163	21,7	34,5
3,1635	24,3	35,2
3,164	27,9	36,8
3,1645	32,0	38,6
3,165	35,9	39,9
3,1655	39,1	40,2
3,166	40,8	39,3
3,1665	41,2	37,3
3,167	40,6	34,8
3,1675	40,2	32,4
3,168	40,5	30,8
3,1685	41,7	30,0
3,169	43,2	30,3
3,1695	44,4	31,3
3,17	45,2	33,0
3,1705	45,6	35,1
3,171	45,6	37,1
3,1715	45,3	37,8
3,172	45,1	36,9
3,1725	45,0	34,6
3,173	45,3	32,2
3,1735	45,7	30,7
3,174	46,0	30,4
3,1745	45,8	31,8
3,175	45,1	34,7
3,1755	44,1	38,2
3,176	42,6	41,3
3,1765	41,0	43,1
3,177	39,7	43,3
3,1775	39,2	42,4
3,178	39,8	40,7
3,1785	41,1	38,5
3,179	42,8	36,3
3,1795	44,4	34,8
3,18	46,0	34,9
3,1805	47,7	36,8
3,181	49,2	39,5
3,1815	49,7	42,4
3,182	48,6	44,8
3,1825	45,7	46,1
3,183	41,9	46,2
3,1835	38,2	45,3
3,184	36,0	43,6
3,1845	36,7	41,9
3,185	40,2	40,6
3,1855	45,5	40,1
3,186	50,7	40,8
3,1865	54,4	42,5
3,187	56,2	44,9
3,1875	56,5	47,3
3,188	55,9	48,3
3,1885	55,1	47,5
3,189	54,5	45,3
3,1895	54,1	42,6
3,19	53,7	40,2
3,1905	53,3	38,7
3,191	52,8	38,5
3,1915	52,1	39,6
3,192	51,4	41,7
3,1925	50,5	44,1
3,193	49,2	46,4
3,1935	47,6	47,8
3,194	45,8	48,1
3,1945	44,3	47,4
3,195	43,0	46,1
3,1955	42,1	44,6
3,196	41,3	43,6
3,1965	40,4	43,8
3,197	38,9	45,7
3,1975	36,5	48,4
3,198	33,0	50,9
3,1985	28,5	52,6
3,199	23,7	53,2
3,1995	19,6	52,3
3,2	17,3	50,3
3,2005	17,6	47,3
3,201	20,3	44,3
3,2015	24,6	41,8
3,202	29,5	40,8
3,2025	33,9	41,0
3,203	37,6	42,4
3,2035	40,5	44,3
3,204	43,3	46,3
3,2045	46,5	47,4
3,205	50,2	47,0
3,2055	53,8	45,2
3,206	56,8	42,8
3,2065	58,8	40,7
3,207	60,2	39,4
3,2075	60,9	39,3
3,208	60,8	40,5
3,2085	59,5	43,1
3,209	57,3	46,9
3,2095	55,3	50,9
3,21	54,4	54,0
3,2105	55,5	55,3
3,211	58,7	54,8
3,2115	62,4	52,8
3,212	64,7	49,9
3,2125	63,7	47,3
3,213	59,2	46,0
3,2135	52,8	46,6
3,214	47,3	48,5
3,2145	45,1	50,7
3,215	47,0	52,5
3,2155	52,1	53,5
3,216	58,1	53,3
3,2165	63,2	51,9
3,217	66,2	49,5
3,2175	66,7	46,9
3,218	65,4	44,8
3,2185	63,0	44,0
3,219	60,0	44,8
3,2195	56,5	46,7
3,22	52,3	49,0
3,2205	47,3	51,5
3,221	42,2	53,3
3,2215	37,1	53,4
3,222	32,3	51,5
3,2225	28,1	48,5
3,223	24,8	45,7
3,2235	22,7	43,8
3,224	22,3	43,1
3,2245	23,3	43,6
3,225	25,2	45,3
3,2255	27,4	47,7
3,226	29,4	50,3
3,2265	31,3	52,2
3,227	33,7	52,8
3,2275	36,7	52,1
3,228	40,2	50,4
3,2285	43,5	48,0
3,229	46,5	45,4
3,2295	49,4	43,6
3,23	52,2	43,5
3,2305	54,7	45,3
3,231	56,5	48,3
3,2315	57,2	51,4
3,232	56,9	53,7
3,2325	56,0	54,3
3,233	54,8	52,7
3,2335	53,1	49,5
3,234	51,2	45,7
3,2345	49,6	42,3
3,235	48,9	40,5
3,2355	48,9	40,5
3,236	49,3	42,1
3,2365	49,3	44,6
3,237	48,8	47,7
3,2375	47,6	50,4
3,238	45,8	51,7
3,2385	43,3	50,6
3,239	40,2	47,5
3,2395	36,6	43,5
3,24	33,2	39,8
3,2405	30,4	37,0
3,241	28,6	36,0
3,2415	28,0	37,1
3,242	28,4	39,8
3,2425	29,6	43,1
3,243	30,9	45,8
3,2435	31,8	46,7
3,244	32,4	45,8
3,2445	32,9	43,4
3,245	33,3	40,4
3,2455	32,8	37,5
3,246	30,4	35,5
3,2465	26,5	35,1
3,247	23,3	36,8
3,2475	23,0	39,9
3,248	26,4	43,3
3,2485	32,0	46,3
3,249	37,9	48,2
3,2495	42,6	48,8
3,25	45,4	47,8
3,2505	46,4	45,6
3,251	46,0	42,8
3,2515	44,9	40,7
3,252	43,4	40,0
3,2525	41,9	40,7
3,253	40,6	42,2
3,2535	39,3	43,8
3,254	38,1	45,3
3,2545	36,8	45,8
3,255	35,8	44,8
3,2555	34,9	42,0
3,256	34,0	38,2
3,2565	32,9	34,6
3,257	31,4	32,2
3,2575	29,8	31,5
3,258	28,9	32,9
3,2585	29,1	36,1
3,259	30,4	40,3
3,2595	31,9	44,3
3,26	32,7	46,8
3,2605	32,8	47,4
3,261	32,6	46,3
3,2615	32,7	43,9
3,262	33,5	40,7
3,2625	35,4	37,6
3,263	38,7	35,9
3,2635	43,6	36,4
3,264	49,9	38,8
3,2645	56,9	41,6
3,265	63,6	43,9
3,2655	68,6	45,1
3,266	71,0	45,1
3,2665	70,6	44,2
3,267	68,3	42,6
3,2675	65,4	40,7
3,268	62,5	38,8
3,2685	59,9	37,6
3,269	57,7	37,2
3,2695	56,0	37,6
3,27	54,7	38,7
3,2705	53,3	40,4
3,271	51,2	41,7
3,2715	48,5	41,6
3,272	45,9	39,3
3,2725	44,5	35,5
3,273	45,0	31,5
3,2735	47,1	28,5
3,274	49,7	27,2
3,2745	51,8	27,6
3,275	52,6	29,5
3,2755	51,9	32,1
3,276	48,8	34,8
3,2765	42,3	36,7
3,277	32,1	37,4
3,2775	20,1	36,9
3,278	9,1	35,7
3,2785	1,5	34,0
3,279	-1,5	32,2
3,2795	-0,5	30,9
3,28	3,8	30,8
3,2805	9,9	32,3
3,281	16,4	34,9
3,2815	21,8	37,7
3,282	25,5	39,9
3,2825	27,2	41,0
3,283	27,2	40,6
3,2835	26,1	39,0
3,284	25,3	36,4
3,2845	25,9	33,6
3,285	29,2	31,5
3,2855	35,1	30,8
3,286	42,4	31,7
3,2865	49,3	33,4
3,287	54,3	35,5
3,2875	56,6	37,5
3,288	56,4	38,3
3,2885	54,3	37,2
3,289	51,2	34,3
3,2895	47,9	31,1
3,29	45,1	28,6
3,2905	42,7	27,6
3,291	40,5	28,3
3,2915	38,6	30,4
3,292	36,9	33,2
3,2925	35,9	36,1
3,293	36,2	38,3
3,2935	38,5	39,6
3,294	42,8	39,7
3,2945	48,0	38,8
3,295	52,7	37,0
3,2955	56,2	34,9
3,296	58,6	33,2
3,2965	60,2	32,8
3,297	61,2	33,8
3,2975	61,4	35,8
3,298	60,3	38,0
3,2985	57,7	40,2
3,299	53,3	41,6
3,2995	47,5	42,0
3,3	40,8	41,1
3,3005	34,4	38,9
3,301	29,1	36,2
3,3015	25,8	33,9
3,302	24,1	32,9
3,3025	23,7	33,2
3,303	24,1	34,4
3,3035	25,2	36,3
3,304	27,3	38,5
3,3045	30,1	40,4
3,305	33,1	40,9
3,3055	35,8	39,8
3,306	39,3	37,5
3,3065	44,6	35,2
3,307	51,3	33,7
3,3075	57,6	33,6
3,308	61,8	35,0
3,3085	64,0	37,7
3,309	64,8	41,2
3,3095	64,4	44,6
3,31	62,9	46,8
3,3105	60,4	47,5
3,311	57,1	46,7
3,3115	53,3	45,0
3,312	48,8	43,0
3,3125	43,6	41,2
3,313	38,3	40,6
3,3135	33,5	41,6
3,314	29,9	44,1
3,3145	27,5	47,2
3,315	25,9	50,0
3,3155	24,3	52,3
3,316	22,7	53,8
3,3165	21,8	54,3
3,317	23,5	53,6
3,3175	28,9	52,2
3,318	37,2	50,9
3,3185	45,9	50,4
3,319	53,2	50,8
3,3195	58,3	51,7
3,32	61,4	52,7
3,3205	62,7	53,8
3,321	62,2	54,5
3,3215	59,8	53,9
3,322	56,1	51,4
3,3225	51,8	47,6
3,323	47,9	43,7
3,3235	44,8	41,0
3,324	41,4	40,1
3,3245	36,8	41,1
3,325	30,7	43,7
3,3255	24,1	47,2
3,326	18,7	50,7
3,3265	15,7	53,3
3,327	15,4	54,3
3,3275	16,8	54,0
3,328	19,0	53,0
3,3285	20,4	51,3
3,329	20,7	49,3
3,3295	20,3	47,7
3,33	19,8	47,3
3,3305	19,4	48,2
3,331	19,2	49,9
3,3315	19,0	51,5
3,332	19,0	52,5
3,3325	19,1	52,7
3,333	19,3	51,7
3,3335	19,7	49,8
3,334	20,3	47,5
3,3345	21,5	45,4
3,335	23,7	44,4
3,3355	27,6	44,8
3,336	33,0	46,3
3,3365	39,7	48,8
3,337	47,8	51,5
3,3375	57,2	53,7
3,338	67,0	54,5
3,3385	75,3	53,4
3,339	80,2	50,8
3,3395	80,8	47,5
3,34	77,5	44,6
3,3405	71,9	42,7
3,341	65,6	42,3
3,3415	60,1	43,2
3,342	55,4	45,5
3,3425	51,0	48,3
3,343	46,6	50,9
3,3435	42,3	52,3
3,344	38,7	52,2
3,3445	35,8	50,8
3,345	32,9	48,4
3,3455	29,7	45,6
3,346	26,3	43,6
3,3465	23,5	43,2
3,347	21,9	44,7
3,3475	21,8	47,7
3,348	23,1	50,9
3,3485	25,3	53,4
3,349	27,7	54,5
3,3495	30,3	53,9
3,35	33,3	51,8
3,3505	36,6	48,9
3,351	40,1	45,7
3,3515	43,7	43,2
3,352	47,1	42,1
3,3525	50,3	42,6
3,353	53,1	44,5
3,3535	54,8	47,1
3,354	55,1	49,7
3,3545	54,2	51,1
3,355	52,8	50,7
3,3555	51,8	48,6
3,356	51,5	45,7
3,3565	51,4	42,8
3,357	51,0	40,5
3,3575	50,3	39,1
3,358	49,8	39,2
3,3585	49,4	40,8
3,359	48,8	43,7
3,3595	47,4	46,7
3,36	45,0	48,6
3,3605	41,2	48,7
3,361	35,6	46,9
3,3615	29,0	43,9
3,362	23,0	40,6
3,3625	19,2	37,7
3,363	17,8	36,4
3,3635	17,8	37,0
3,364	18,1	39,2
3,3645	18,8	41,8
3,365	20,2	43,9
3,3655	23,0	44,7
3,366	27,0	44,0
3,3665	31,6	42,1
3,367	36,1	39,4
3,3675	39,9	36,5
3,368	42,8	34,3
3,3685	43,9	33,3
3,369	42,6	34,0
3,3695	39,0	35,8
3,37	33,7	38,4
3,3705	27,5	41,0
3,371	21,3	43,0
3,3715	15,8	43,4
3,372	11,8	42,0
3,3725	9,7	39,4
3,373	9,3	36,3
3,3735	10,4	33,7
3,374	12,8	32,3
3,3745	15,6	32,7
3,375	17,9	34,4
3,3755	19,2	37,2
3,376	20,0	40,1
3,3765	21,3	42,5
3,377	23,7	43,6
3,3775	27,1	43,1
3,378	31,3	41,4
3,3785	35,7	38,8
3,379	39,9	36,1
3,3795	43,3	34,3
3,38	45,6	34,5
3,3805	46,6	37,0
3,381	46,3	40,8
3,3815	46,2	44,5
3,382	48,0	47,2
3,3825	52,4	48,6
3,383	58,2	48,3
3,3835	63,0	46,7
3,384	65,5	44,5
3,3845	65,3	42,4
3,385	63,7	41,1
3,3855	62,3	40,8
3,386	62,1	41,4
3,3865	62,9	42,8
3,387	63,7	44,8
3,3875	63,4	46,7
3,388	62,2	47,3
3,3885	60,5	46,3
3,389	59,2	43,8
3,3895	58,3	40,7
3,39	57,9	38,0
3,3905	57,5	36,3
3,391	56,9	36,2
3,3915	56,1	37,4
3,392	55,3	39,7
3,3925	54,3	42,4
3,393	53,2	45,0
3,3935	51,7	46,6
3,394	50,0	47,1
3,3945	48,8	46,3
3,395	48,4	44,7
3,3955	48,6	42,5
3,396	49,2	40,5
3,3965	49,6	39,7
3,397	49,6	40,4
3,3975	48,9	42,1
3,398	47,3	44,1
3,3985	45,3	45,8
3,399	43,5	47,0
3,3995	42,3	47,2
3,4	42,0	46,1
3,4005	42,4	44,0
3,401	43,0	41,5
3,4015	42,8	39,4
3,402	41,1	38,2
3,4025	38,2	37,8
3,403	35,0	38,2
3,4035	32,5	39,2
3,404	31,4	40,6
3,4045	31,6	41,3
3,405	32,4	40,5
3,4055	33,4	38,1
3,406	34,6	35,1
3,4065	35,8	32,6
3,407	37,2	31,2
3,4075	38,8	31,1
3,408	40,6	32,4
3,4085	42,5	35,0
3,409	44,3	38,3
3,4095	45,4	41,3
3,41	45,7	43,5
3,4105	45,2	44,4
3,411	44,3	44,0
3,4115	43,4	42,5
3,412	42,8	40,4
3,4125	42,3	38,1
3,413	42,0	36,9
3,4135	41,7	37,4
3,414	40,6	39,3
3,4145	38,1	41,8
3,415	33,9	44,2
3,4155	28,8	46,1
3,416	24,2	47,2
3,4165	20,7	47,0
3,417	18,9	45,5
3,4175	18,7	43,3
3,418	19,9	41,3
3,4185	22,8	40,2
3,419	27,3	40,0
3,4195	32,8	40,7
3,42	38,3	42,1
3,4205	42,3	43,9
3,421	44,6	45,3
3,4215	45,6	45,3
3,422	46,5	43,3
3,4225	48,3	40,0
3,423	51,4	36,4
3,4235	55,7	33,5
3,424	60,7	31,9
3,4245	66,0	31,8
3,425	70,7	33,3
3,4255	73,7	35,7
3,426	74,6	38,5
3,4265	73,3	40,5
3,427	70,0	41,1
3,4275	64,7	40,3
3,428	57,8	38,5
3,4285	50,3	36,4
3,429	43,5	34,6
3,4295	38,1	33,8
3,43	34,4	34,8
3,4305	32,4	37,3
3,431	31,7	40,4
3,4315	32,1	43,2
