Interval=	0,0005 s
ExcelDateTime=	4,5911505828524241e+004	11/09/2025 12:08:23,584495
TimeFormat=	StartOfBlock
DateFormat=	
ChannelTitle=	Biceps	Triceps
Range=	1000,0 µV	1000,0 µV
0	-0,0	-0,1
0,0005	-0,3	-1,0
0,001	-1,7	-3,7
0,0015	-4,5	-8,1
0,002	-8,3	-12,9
0,0025	-11,8	-17,0
0,003	-13,7	-20,2
0,0035	-13,9	-22,8
0,004	-12,4	-24,9
0,0045	-10,0	-26,4
0,005	-7,2	-27,0
0,0055	-4,7	-26,8
0,006	-2,9	-25,7
0,0065	-1,8	-24,1
0,007	-1,3	-22,7
0,0075	-1,6	-22,2
0,008	-3,0	-23,0
0,0085	-5,2	-24,7
0,009	-7,7	-26,7
0,0095	-9,8	-28,4
0,01	-11,4	-29,8
0,0105	-12,4	-30,4
0,011	-12,8	-30,3
0,0115	-12,5	-29,4
0,012	-11,1	-28,3
0,0125	-8,1	-27,2
0,013	-2,6	-26,5
0,0135	5,3	-26,2
0,014	14,8	-26,3
0,0145	24,8	-26,6
0,015	34,5	-27,2
0,0155	43,3	-27,4
0,016	49,8	-27,0
0,0165	52,0	-25,8
0,017	49,2	-24,3
0,0175	42,7	-23,0
0,018	35,0	-22,2
0,0185	28,2	-21,9
0,019	22,7	-22,0
0,0195	18,0	-22,9
0,02	13,6	-24,5
0,0205	9,1	-26,7
0,021	4,6	-28,8
0,0215	0,3	-30,4
0,022	-3,1	-31,0
0,0225	-4,6	-30,7
0,023	-3,5	-29,4
0,0235	-0,5	-27,7
0,024	3,3	-26,1
0,0245	7,2	-24,9
0,025	11,3	-24,5
0,0255	15,8	-24,6
0,026	19,9	-25,3
0,0265	23,3	-26,3
0,027	25,7	-27,2
0,0275	26,5	-27,3
0,028	25,5	-26,7
0,0285	22,6	-25,5
0,029	18,0	-24,1
0,0295	12,4	-23,0
0,03	6,9	-22,5
0,0305	2,0	-22,9
0,031	-1,8	-24,2
0,0315	-4,6	-26,1
0,032	-6,5	-28,0
0,0325	-7,6	-29,5
0,033	-8,1	-30,1
0,0335	-7,8	-29,7
0,034	-5,9	-28,8
0,0345	-1,7	-28,0
0,035	4,8	-27,4
0,0355	12,1	-27,5
0,036	18,6	-28,3
0,0365	22,9	-29,8
0,037	24,8	-31,8
0,0375	25,2	-34,0
0,038	24,9	-35,7
0,0385	24,7	-36,3
0,039	24,8	-35,7
0,0395	25,2	-34,2
0,04	26,0	-32,3
0,0405	26,6	-31,0
0,041	26,0	-30,9
0,0415	23,1	-31,9
0,042	16,8	-33,7
0,0425	7,7	-35,7
0,043	-3,0	-37,3
0,0435	-13,6	-38,2
0,044	-22,9	-38,1
0,0445	-30,0	-37,0
0,045	-34,5	-35,3
0,0455	-37,0	-33,5
0,046	-38,8	-32,2
0,0465	-40,6	-31,8
0,047	-42,2	-32,1
0,0475	-42,6	-33,1
0,048	-40,8	-34,5
0,0485	-37,1	-35,9
0,049	-32,3	-36,8
0,0495	-27,7	-36,4
0,05	-23,8	-35,0
0,0505	-20,4	-33,5
0,051	-16,4	-32,7
0,0515	-11,1	-32,5
0,052	-4,3	-33,1
0,0525	4,2	-34,2
0,053	13,8	-35,9
0,0535	23,8	-37,9
0,054	33,4	-39,6
0,0545	41,3	-40,6
0,055	46,3	-40,5
0,0555	48,0	-39,7
0,056	46,7	-38,4
0,0565	43,1	-36,8
0,057	38,5	-35,4
0,0575	34,8	-34,6
0,058	33,1	-34,7
0,0585	33,8	-35,7
0,059	36,3	-37,2
0,0595	39,0	-38,8
0,06	40,6	-40,1
0,0605	40,4	-41,0
0,061	38,3	-41,3
0,0615	34,8	-40,8
0,062	30,7	-39,8
0,0625	26,5	-38,7
0,063	23,5	-38,1
0,0635	24,7	-38,6
0,064	32,9	-39,9
0,0645	48,4	-41,6
0,065	66,8	-43,2
0,0655	81,8	-44,1
0,066	89,0	-43,8
0,0665	87,2	-42,5
0,067	77,8	-40,8
0,0675	63,7	-39,2
0,068	47,5	-37,9
0,0685	31,1	-37,4
0,069	15,6	-37,9
0,0695	1,2	-39,7
0,07	-11,9	-42,3
0,0705	-23,3	-45,0
0,071	-32,4	-47,0
0,0715	-38,0	-47,9
0,072	-39,7	-47,9
0,0725	-37,7	-47,2
0,073	-32,8	-45,9
0,0735	-26,9	-44,4
0,074	-21,4	-43,5
0,0745	-17,1	-43,6
0,075	-13,8	-44,4
0,0755	-10,7	-45,2
0,076	-7,2	-45,4
0,0765	-3,6	-45,0
0,077	-1,1	-44,2
0,0775	-0,1	-42,9
0,078	-0,7	-41,2
0,0785	-2,1	-39,3
0,079	-3,7	-37,5
0,0795	-4,4	-36,3
0,08	-3,7	-36,0
0,0805	-1,6	-36,7
0,081	1,0	-38,2
0,0815	3,3	-40,2
0,082	4,6	-42,4
0,0825	4,5	-44,0
0,083	3,0	-44,5
0,0835	0,3	-44,0
0,084	-2,6	-43,1
0,0845	-4,5	-42,3
0,085	-4,5	-41,9
0,0855	-2,7	-42,2
0,086	-0,4	-43,3
0,0865	0,4	-45,2
0,087	-0,9	-47,4
0,0875	-3,8	-49,4
0,088	-7,1	-50,8
0,0885	-9,5	-51,2
0,089	-10,1	-50,5
0,0895	-8,1	-48,9
0,09	-4,1	-46,6
0,0905	0,3	-44,4
0,091	3,5	-43,1
0,0915	4,5	-42,8
0,092	3,6	-43,2
0,0925	1,2	-43,9
0,093	-1,2	-44,7
0,0935	-1,8	-45,3
0,094	0,5	-45,7
0,0945	5,0	-45,5
0,095	9,3	-44,6
0,0955	11,1	-43,0
0,096	9,8	-41,2
0,0965	6,8	-39,8
0,097	3,8	-39,7
0,0975	2,7	-40,9
0,098	4,1	-42,8
0,0985	8,4	-44,6
0,099	14,5	-45,4
0,0995	20,7	-44,9
0,1	26,1	-43,3
0,1005	30,4	-41,2
0,101	34,1	-39,2
0,1015	37,1	-37,7
0,102	38,4	-36,9
0,1025	37,3	-37,1
0,103	33,3	-38,4
0,1035	27,6	-40,7
0,104	21,5	-43,1
0,1045	16,6	-45,1
0,105	13,7	-46,0
0,1055	12,8	-46,1
0,106	13,5	-45,5
0,1065	15,2	-44,4
0,107	17,4	-43,2
0,1075	19,4	-42,5
0,108	20,8	-42,6
0,1085	21,1	-43,0
0,109	20,6	-43,3
0,1095	19,7	-43,4
0,11	19,1	-43,4
0,1105	19,0	-43,3
0,111	19,5	-42,7
0,1115	20,2	-41,3
0,112	20,5	-39,3
0,1125	19,9	-37,3
0,113	18,3	-35,7
0,1135	16,5	-35,0
0,114	15,1	-34,9
0,1145	14,5	-35,4
0,115	14,3	-36,2
0,1155	14,2	-36,8
0,116	13,9	-36,8
0,1165	13,5	-35,9
0,117	12,6	-34,5
0,1175	10,9	-33,1
0,118	8,1	-32,0
0,1185	4,3	-31,3
0,119	0,5	-31,1
0,1195	-2,3	-31,6
0,12	-4,0	-32,7
0,1205	-5,2	-34,2
0,121	-6,6	-35,4
0,1215	-8,3	-35,9
0,122	-9,6	-35,6
0,1225	-10,5	-34,7
0,123	-11,5	-33,8
0,1235	-12,7	-33,1
0,124	-13,7	-33,0
0,1245	-13,5	-33,8
0,125	-11,7	-35,4
0,1255	-8,6	-37,5
0,126	-4,9	-39,6
0,1265	-1,7	-41,1
0,127	0,7	-41,9
0,1275	2,6	-41,5
0,128	5,2	-40,0
0,1285	9,9	-37,8
0,129	16,5	-35,4
0,1295	23,3	-33,8
0,13	28,1	-33,4
0,1305	29,1	-34,3
0,131	25,8	-35,9
0,1315	19,6	-37,4
0,132	12,7	-37,9
0,1325	6,7	-36,9
0,133	1,9	-34,8
0,1335	-2,3	-32,4
0,134	-6,5	-30,3
0,1345	-9,6	-28,9
0,135	-10,1	-28,3
0,1355	-7,7	-28,5
0,136	-4,6	-29,6
0,1365	-3,3	-31,5
0,137	-4,6	-33,8
0,1375	-7,1	-35,9
0,138	-8,6	-37,2
0,1385	-7,9	-37,4
0,139	-4,7	-36,6
0,1395	0,1	-35,1
0,14	4,8	-33,3
0,1405	7,4	-32,2
0,141	7,5	-32,4
0,1415	5,9	-33,8
0,142	4,3	-35,6
0,1425	3,7	-37,1
0,143	4,5	-38,0
0,1435	6,7	-37,9
0,144	10,1	-36,8
0,1445	14,4	-35,0
0,145	18,9	-32,6
0,1455	22,8	-30,1
0,146	25,8	-28,1
0,1465	28,4	-26,8
0,147	31,3	-26,4
0,1475	34,1	-26,7
0,148	35,5	-27,4
0,1485	34,6	-28,1
0,149	31,8	-28,3
0,1495	27,9	-27,3
0,15	23,8	-25,2
0,1505	20,4	-22,9
0,151	18,2	-21,1
0,1515	17,5	-19,9
0,152	18,0	-19,7
0,1525	19,0	-20,3
0,153	19,7	-21,5
0,1535	19,3	-22,8
0,154	17,7	-23,8
0,1545	14,9	-24,1
0,155	11,3	-23,7
0,1555	7,6	-22,5
0,156	4,6	-20,8
0,1565	2,8	-18,8
0,157	2,5	-17,1
0,1575	3,6	-16,5
0,158	5,6	-17,2
0,1585	7,8	-18,8
0,159	8,8	-20,7
0,1595	8,0	-22,4
0,16	5,3	-23,6
0,1605	1,4	-24,1
0,161	-2,3	-23,9
0,1615	-5,4	-22,9
0,162	-7,5	-21,3
0,1625	-8,8	-19,6
0,163	-9,0	-18,6
0,1635	-8,2	-18,7
0,164	-6,5	-19,9
0,1645	-4,6	-21,9
0,165	-3,0	-24,3
0,1655	-1,5	-26,4
0,166	0,4	-27,3
0,1665	3,3	-26,8
0,167	7,0	-25,6
0,1675	11,1	-24,2
0,168	15,2	-23,2
0,1685	19,8	-22,5
0,169	25,6	-22,4
0,1695	32,5	-23,2
0,17	39,3	-25,1
0,1705	44,2	-28,0
0,171	46,6	-31,0
0,1715	46,2	-33,2
0,172	43,8	-34,0
0,1725	40,4	-33,5
0,173	36,8	-32,1
0,1735	33,8	-30,4
0,174	31,4	-29,1
0,1745	29,0	-28,7
0,175	26,3	-29,1
0,1755	23,2	-29,9
0,176	21,3	-30,6
0,1765	24,0	-31,0
0,177	33,8	-31,0
0,1775	49,4	-30,7
0,178	65,7	-30,3
0,1785	76,9	-29,5
0,179	80,3	-28,4
0,1795	76,3	-27,3
0,18	67,8	-26,5
0,1805	57,7	-26,4
0,181	47,1	-26,8
0,1815	35,9	-27,8
0,182	23,4	-28,8
0,1825	9,7	-29,5
0,183	-3,7	-29,3
0,1835	-15,1	-28,3
0,184	-22,9	-26,8
0,1845	-26,0	-25,0
0,185	-25,0	-23,7
0,1855	-21,2	-23,4
0,186	-16,8	-24,2
0,1865	-13,5	-26,0
0,187	-12,1	-28,4
0,1875	-12,5	-30,7
0,188	-13,0	-32,5
0,1885	-11,9	-33,6
0,189	-8,9	-33,7
0,1895	-4,8	-32,9
0,19	-1,3	-31,4
0,1905	1,2	-29,9
0,191	3,6	-29,1
0,1915	7,4	-29,4
0,192	13,8	-30,4
0,1925	22,0	-31,6
0,193	30,3	-32,5
0,1935	36,3	-32,8
0,194	38,8	-32,3
0,1945	38,0	-31,2
0,195	34,7	-29,5
0,1955	30,1	-27,4
0,196	25,0	-25,3
0,1965	20,3	-23,7
0,197	16,3	-22,8
0,1975	13,1	-22,7
0,198	10,5	-23,2
0,1985	8,6	-24,3
0,199	7,0	-25,1
0,1995	5,8	-25,4
0,2	5,4	-25,1
0,2005	5,6	-24,5
0,201	6,1	-24,1
0,2015	6,0	-24,2
0,202	5,0	-25,0
0,2025	3,7	-26,8
0,203	3,4	-29,4
0,2035	4,7	-32,5
0,204	7,2	-35,6
0,2045	9,7	-38,0
0,205	11,1	-38,8
0,2055	11,0	-38,1
0,206	10,0	-36,2
0,2065	9,3	-33,6
0,207	10,0	-31,2
0,2075	12,3	-29,6
0,208	15,5	-29,2
0,2085	18,9	-29,8
0,209	21,8	-30,8
0,2095	23,7	-31,7
0,21	24,1	-31,9
0,2105	22,5	-31,3
0,211	18,9	-29,8
0,2115	13,4	-27,5
0,212	6,7	-24,7
0,2125	-0,3	-21,8
0,213	-6,0	-19,6
0,2135	-9,6	-18,5
0,214	-10,7	-18,7
0,2145	-10,2	-20,1
0,215	-9,2	-22,1
0,2155	-8,2	-23,9
0,216	-7,1	-24,8
0,2165	-5,5	-24,2
0,217	-3,7	-22,6
0,2175	-2,8	-20,8
0,218	-3,5	-19,3
0,2185	-5,3	-18,7
0,219	-7,0	-19,1
0,2195	-7,2	-20,7
0,22	-5,3	-23,1
0,2205	-1,8	-25,8
0,221	2,6	-28,2
0,2215	7,1	-29,7
0,222	11,4	-29,9
0,2225	15,7	-29,0
0,223	19,8	-27,4
0,2235	23,6	-25,7
0,224	26,7	-24,6
0,2245	29,0	-24,3
0,225	30,4	-24,8
0,2255	30,8	-25,6
0,226	30,1	-26,5
0,2265	28,4	-27,5
0,227	26,4	-28,3
0,2275	25,4	-28,5
0,228	26,4	-27,8
0,2285	29,8	-26,2
0,229	35,4	-24,1
0,2295	42,2	-22,3
0,23	49,1	-21,5
0,2305	54,6	-21,8
0,231	58,1	-23,2
0,2315	59,3	-25,0
0,232	58,9	-26,6
0,2325	57,0	-27,2
0,233	53,7	-26,4
0,2335	49,0	-24,7
0,234	43,7	-22,8
0,2345	38,9	-21,3
0,235	35,4	-20,2
0,2355	32,9	-19,6
0,236	30,5	-19,5
0,2365	26,8	-19,8
0,237	21,0	-20,5
0,2375	13,4	-21,5
0,238	5,3	-22,3
0,2385	-1,7	-22,4
0,239	-7,2	-21,6
0,2395	-11,8	-20,1
0,24	-16,4	-18,3
0,2405	-21,3	-16,9
0,241	-26,1	-16,5
0,2415	-30,3	-17,1
0,242	-33,4	-18,5
0,2425	-34,9	-20,3
0,243	-34,1	-22,0
0,2435	-31,0	-23,4
0,244	-26,0	-23,9
0,2445	-20,2	-23,5
0,245	-14,9	-22,1
0,2455	-11,3	-20,0
0,246	-9,6	-17,6
0,2465	-9,2	-15,5
0,247	-9,7	-14,6
0,2475	-11,1	-14,9
0,248	-12,9	-16,6
0,2485	-14,2	-19,1
0,249	-13,8	-21,6
0,2495	-11,9	-22,9
0,25	-8,9	-22,9
0,2505	-5,7	-21,9
0,251	-3,0	-20,3
0,2515	-0,7	-18,8
0,252	1,7	-17,6
0,2525	4,5	-17,2
0,253	7,8	-17,7
0,2535	11,2	-19,0
0,254	14,3	-20,8
0,2545	16,7	-22,6
0,255	18,2	-23,8
0,2555	18,3	-24,0
0,256	17,4	-23,2
0,2565	15,8	-21,8
0,257	14,0	-20,1
0,2575	13,1	-18,6
0,258	14,3	-18,2
0,2585	17,7	-18,8
0,259	22,4	-20,1
0,2595	26,7	-21,6
0,26	29,2	-22,6
0,2605	29,3	-22,9
0,261	27,7	-22,2
0,2615	25,4	-20,5
0,262	23,6	-18,3
0,2625	22,5	-16,1
0,263	22,2	-14,5
0,2635	22,2	-14,2
0,264	22,3	-15,1
0,2645	22,4	-16,9
0,265	22,5	-18,9
0,2655	22,8	-20,4
0,266	23,3	-20,9
0,2665	23,9	-20,5
0,267	24,9	-19,6
0,2675	26,3	-18,5
0,268	28,1	-17,7
0,2685	29,8	-17,3
0,269	30,8	-17,6
0,2695	30,4	-18,4
0,27	28,8	-19,7
0,2705	26,6	-21,1
0,271	24,3	-22,4
0,2715	22,1	-23,2
0,272	20,1	-23,1
0,2725	18,3	-22,1
0,273	16,7	-20,4
0,2735	15,4	-18,3
0,274	14,5	-16,7
0,2745	13,8	-16,3
0,275	13,3	-17,3
0,2755	13,2	-19,1
0,276	13,4	-20,8
0,2765	14,2	-22,0
0,277	15,4	-22,4
0,2775	16,8	-21,8
0,278	17,8	-20,3
0,2785	18,3	-18,2
0,279	18,0	-16,0
0,2795	17,3	-14,3
0,28	16,3	-13,7
0,2805	15,0	-13,9
0,281	13,7	-14,8
0,2815	12,4	-15,8
0,282	11,4	-16,8
0,2825	10,4	-17,2
0,283	9,5	-17,1
0,2835	8,9	-16,6
0,284	9,2	-15,9
0,2845	11,2	-15,2
0,285	15,2	-14,7
0,2855	20,2	-14,8
0,286	24,5	-15,7
0,2865	26,7	-17,5
0,287	26,4	-20,0
0,2875	23,9	-22,4
0,288	19,9	-24,2
0,2885	15,7	-24,9
0,289	12,5	-24,8
0,2895	11,0	-24,0
0,29	10,9	-22,7
0,2905	11,3	-21,8
0,291	11,3	-21,8
0,2915	10,0	-22,8
0,292	7,2	-24,5
0,2925	3,4	-26,2
0,293	-0,4	-27,2
0,2935	-3,4	-27,3
0,294	-5,5	-26,4
0,2945	-7,1	-24,7
0,295	-8,4	-22,6
0,2955	-9,6	-20,6
0,296	-9,8	-18,9
0,2965	-7,8	-17,6
0,297	-2,2	-16,6
0,2975	6,8	-16,1
0,298	17,2	-16,0
0,2985	26,5	-16,3
0,299	33,2	-16,7
0,2995	36,8	-16,7
0,3	37,4	-16,2
0,3005	35,6	-15,3
0,301	31,9	-14,6
0,3015	26,8	-14,3
0,302	22,4	-14,6
0,3025	22,4	-15,6
0,303	29,5	-17,3
0,3035	42,8	-19,7
0,304	58,1	-22,3
0,3045	71,2	-24,2
0,305	79,1	-25,1
0,3055	80,9	-25,1
0,306	77,1	-24,6
0,3065	68,8	-24,0
0,307	56,4	-23,7
0,3075	39,7	-24,3
0,308	18,9	-25,9
0,3085	-4,0	-28,4
0,309	-25,6	-31,1
0,3095	-42,7	-33,5
0,31	-54,3	-35,0
0,3105	-61,1	-35,3
0,311	-64,3	-34,7
0,3115	-64,7	-33,0
0,312	-62,8	-30,7
0,3125	-59,1	-28,4
0,313	-54,7	-26,8
0,3135	-50,0	-26,5
0,314	-43,9	-27,3
0,3145	-35,0	-29,1
0,315	-23,1	-31,2
0,3155	-10,2	-32,7
0,316	1,4	-32,9
0,3165	10,3	-31,9
0,317	16,5	-30,4
0,3175	21,0	-29,2
0,318	24,8	-28,5
0,3185	28,8	-28,7
0,319	33,2	-29,8
0,3195	37,3	-31,6
0,32	40,5	-34,0
0,3205	42,1	-36,4
0,321	41,9	-38,4
0,3215	40,4	-39,4
0,322	38,3	-39,4
0,3225	36,4	-38,6
0,323	34,5	-37,3
0,3235	31,7	-36,0
0,324	27,5	-35,5
0,3245	21,9	-36,1
0,325	14,8	-37,3
0,3255	7,0	-38,3
0,326	-0,1	-38,9
0,3265	-5,0	-39,1
0,327	-6,9	-38,5
0,3275	-6,3	-37,2
0,328	-4,1	-35,3
0,3285	-1,3	-32,9
0,329	1,5	-30,5
0,3295	3,5	-28,6
0,33	4,6	-27,6
0,3305	4,8	-27,6
0,331	4,6	-28,3
0,3315	4,1	-29,4
0,332	3,5	-30,1
0,3325	3,6	-29,9
0,333	5,6	-28,8
0,3335	10,4	-26,9
0,334	16,8	-24,8
0,3345	22,3	-22,8
0,335	24,8	-21,1
0,3355	24,2	-20,2
0,336	21,6	-20,4
0,3365	18,9	-21,7
0,337	17,5	-23,8
0,3375	17,5	-26,0
0,338	18,2	-28,0
0,3385	18,8	-29,3
0,339	18,6	-29,7
0,3395	17,3	-29,6
0,34	15,3	-29,3
0,3405	13,7	-29,3
0,341	13,1	-29,8
0,3415	13,6	-30,6
0,342	14,8	-31,5
0,3425	16,2	-32,3
0,343	17,0	-33,0
0,3435	16,7	-33,3
0,344	15,5	-33,0
0,3445	13,5	-32,1
0,345	10,9	-30,8
0,3455	8,1	-29,3
0,346	5,4	-28,2
0,3465	3,3	-28,0
0,347	2,2	-28,7
0,3475	1,8	-30,3
0,348	1,8	-32,5
0,3485	1,9	-34,7
0,349	2,7	-36,3
0,3495	4,2	-36,8
0,35	6,2	-36,1
0,3505	8,5	-34,8
0,351	11,3	-33,6
0,3515	14,4	-32,6
0,352	17,3	-32,3
0,3525	19,3	-32,7
0,353	20,3	-34,0
0,3535	20,5	-35,9
0,354	20,0	-37,6
0,3545	19,2	-38,7
0,355	18,1	-38,6
0,3555	17,1	-37,6
0,356	17,0	-35,7
0,3565	18,1	-33,4
0,357	20,1	-31,0
0,3575	21,5	-29,4
0,358	21,3	-29,2
0,3585	19,0	-30,0
0,359	15,2	-31,2
0,3595	10,6	-32,0
0,36	5,9	-32,3
0,3605	1,9	-31,6
0,361	-0,5	-30,1
0,3615	-0,9	-27,9
0,362	0,8	-25,7
0,3625	4,3	-24,0
0,363	9,1	-23,2
0,3635	14,7	-23,6
0,364	20,0	-24,9
0,3645	24,0	-27,0
0,365	25,7	-29,2
0,3655	24,9	-30,9
0,366	22,2	-31,8
0,3665	18,9	-31,8
0,367	16,1	-31,4
0,3675	14,9	-30,9
0,368	15,4	-30,5
0,3685	17,2	-30,2
0,369	19,6	-30,4
0,3695	21,8	-31,3
0,37	23,0	-32,9
0,3705	23,4	-34,7
0,371	22,9	-36,1
0,3715	21,9	-36,7
0,372	20,6	-36,6
0,3725	19,0	-35,8
0,373	17,5	-34,3
0,3735	16,4	-32,5
0,374	15,6	-30,9
0,3745	15,1	-30,3
0,375	15,0	-30,6
0,3755	15,3	-31,7
0,376	15,8	-33,0
0,3765	16,5	-33,8
0,377	16,9	-33,6
0,3775	17,0	-32,4
0,378	16,6	-30,4
0,3785	15,9	-28,0
0,379	15,2	-25,8
0,3795	14,4	-24,2
0,38	14,0	-23,5
0,3805	13,8	-23,6
0,381	13,8	-24,3
0,3815	13,0	-25,3
0,382	10,7	-26,1
0,3825	6,5	-26,2
0,383	0,7	-25,4
0,3835	-5,7	-24,3
0,384	-11,6	-23,4
0,3845	-16,0	-23,0
0,385	-18,3	-23,0
0,3855	-18,4	-23,6
0,386	-17,5	-24,7
0,3865	-17,7	-26,2
0,387	-20,9	-27,7
0,3875	-27,7	-28,8
0,388	-36,1	-28,8
0,3885	-43,1	-27,8
0,389	-47,1	-25,9
0,3895	-47,6	-23,2
0,39	-45,5	-20,4
0,3905	-41,8	-17,9
0,391	-37,4	-16,7
0,3915	-32,6	-16,9
0,392	-27,0	-17,9
0,3925	-20,7	-19,1
0,393	-14,2	-20,0
0,3935	-7,6	-20,3
0,394	-0,8	-19,7
0,3945	6,3	-18,3
0,395	14,2	-16,3
0,3955	24,0	-14,2
0,396	36,9	-12,5
0,3965	52,2	-11,8
0,397	66,8	-12,0
0,3975	77,3	-13,0
0,398	81,9	-14,4
0,3985	81,0	-16,0
0,399	76,4	-16,9
0,3995	70,5	-16,6
0,4	64,8	-14,9
0,4005	59,2	-12,3
0,401	53,5	-9,7
0,4015	47,3	-7,6
0,402	40,5	-6,8
0,4025	33,3	-7,1
0,403	26,2	-8,4
0,4035	19,5	-10,3
0,404	13,6	-12,3
0,4045	8,6	-13,8
0,405	4,7	-14,3
0,4055	1,6	-13,5
0,406	-0,7	-11,9
0,4065	-2,2	-9,7
0,407	-2,9	-7,5
0,4075	-2,5	-6,2
0,408	-0,8	-6,2
0,4085	1,7	-7,4
0,409	4,3	-9,0
0,4095	6,5	-10,2
0,41	8,3	-10,6
0,4105	9,7	-10,2
0,411	10,8	-8,9
0,4115	11,8	-7,0
0,412	12,9	-4,8
0,4125	14,3	-2,6
0,413	16,0	-0,7
0,4135	17,7	0,7
0,414	18,8	1,2
0,4145	18,7	0,8
0,415	17,2	-0,3
0,4155	15,1	-1,4
0,416	13,0	-1,3
0,4165	11,4	-0,1
0,417	10,3	1,9
0,4175	9,5	3,8
0,418	9,0	5,2
0,4185	8,7	5,8
0,419	8,7	5,4
0,4195	9,0	4,1
0,42	9,2	2,0
0,4205	9,0	-0,4
0,421	8,5	-2,5
0,4215	8,0	-4,1
0,422	7,5	-4,7
0,4225	6,8	-4,5
0,423	5,8	-3,5
0,4235	4,1	-2,0
0,424	2,0	-0,4
0,4245	0,2	0,6
0,425	-1,3	0,4
0,4255	-3,2	-0,8
0,426	-6,4	-2,8
0,4265	-10,3	-5,1
0,427	-13,1	-6,7
0,4275	-13,6	-7,1
0,428	-11,5	-6,2
0,4285	-8,0	-4,5
0,429	-3,9	-2,6
0,4295	0,5	-1,3
0,43	5,3	-0,8
0,4305	9,6	-1,1
0,431	12,5	-2,0
0,4315	13,6	-3,3
0,432	13,8	-4,9
0,4325	13,8	-6,1
0,433	14,2	-6,4
0,4335	14,8	-5,5
0,434	15,8	-4,0
0,4345	17,1	-2,3
0,435	18,9	-0,8
0,4355	20,9	0,3
0,436	23,3	0,9
0,4365	26,3	0,6
0,437	30,0	-0,7
0,4375	34,0	-2,6
0,438	36,7	-4,6
0,4385	36,7	-6,1
0,439	33,6	-6,8
0,4395	28,6	-6,5
0,44	23,0	-5,5
0,4405	17,3	-4,4
0,441	11,1	-3,6
0,4415	4,8	-3,7
0,442	-0,5	-4,2
0,4425	-3,8	-4,8
0,443	-4,8	-5,2
0,4435	-3,7	-5,1
0,444	-1,7	-4,3
0,4445	-0,1	-2,7
0,445	0,1	-0,4
0,4455	-1,2	2,3
0,446	-3,1	4,7
0,4465	-4,9	6,2
0,447	-6,5	6,4
0,4475	-7,3	5,5
0,448	-7,1	3,7
0,4485	-5,6	1,6
0,449	-3,3	0,0
0,4495	-0,6	-0,6
0,45	2,8	-0,2
0,4505	6,9	0,9
0,451	11,5	2,0
0,4515	16,0	3,0
0,452	19,5	3,7
0,4525	21,7	3,9
0,453	22,3	3,3
0,4535	22,3	1,7
0,454	22,1	-0,2
0,4545	22,3	-1,8
0,455	22,3	-2,4
0,4555	21,9	-1,9
0,456	20,6	-0,4
0,4565	18,8	1,6
0,457	17,0	3,5
0,4575	15,9	4,5
0,458	15,6	4,3
0,4585	15,8	3,1
0,459	16,2	1,8
0,4595	16,5	0,7
0,46	16,8	-0,1
0,4605	16,8	-0,7
0,461	16,5	-0,8
0,4615	15,5	-0,1
0,462	13,8	1,3
0,4625	11,7	2,9
0,463	9,8	4,3
0,4635	8,5	4,8
0,464	8,3	4,4
0,4645	8,9	3,1
0,465	10,3	1,3
0,4655	12,8	-0,5
0,466	17,2	-1,4
0,4665	22,5	-1,0
0,467	27,0	0,2
0,4675	28,9	1,5
0,468	28,2	2,4
0,4685	25,6	2,3
0,469	22,0	1,2
0,4695	18,3	-0,8
0,47	15,2	-3,2
0,4705	12,5	-5,3
0,471	9,6	-7,0
0,4715	5,7	-7,9
0,472	0,5	-7,7
0,4725	-5,6	-6,5
0,473	-11,2	-4,7
0,4735	-14,8	-2,6
0,474	-15,9	-1,1
0,4745	-15,0	-0,9
0,475	-13,0	-1,8
0,4755	-11,0	-3,5
0,476	-9,3	-5,1
0,4765	-8,0	-6,3
0,477	-6,5	-6,8
0,4775	-3,9	-6,4
0,478	0,1	-5,2
0,4785	5,1	-3,0
0,479	9,7	-0,5
0,4795	12,6	1,7
0,48	13,7	2,8
0,4805	13,4	2,8
0,481	12,8	1,8
0,4815	12,8	0,4
0,482	14,0	-0,9
0,4825	17,3	-1,6
0,483	25,0	-1,5
0,4835	39,5	-0,7
0,484	60,7	0,3
0,4845	83,7	1,2
0,485	101,9	1,7
0,4855	111,6	1,3
0,486	112,4	-0,3
0,4865	105,8	-3,0
0,487	94,0	-6,2
0,4875	79,1	-8,8
0,488	63,0	-10,3
0,4885	46,7	-10,2
0,489	30,5	-8,9
0,4895	14,8	-7,1
0,49	0,1	-5,6
0,4905	-12,4	-5,0
0,491	-22,0	-5,5
0,4915	-28,5	-7,1
0,492	-32,4	-9,3
0,4925	-33,7	-11,3
0,493	-32,9	-12,8
0,4935	-31,0	-13,3
0,494	-28,9	-12,6
0,4945	-27,4	-10,6
0,495	-25,6	-7,6
0,4955	-22,7	-4,3
0,496	-18,1	-1,5
0,4965	-12,6	0,4
0,497	-6,9	1,3
0,4975	-1,6	1,1
0,498	2,8	-0,1
0,4985	5,6	-2,0
0,499	6,7	-3,9
0,4995	6,8	-4,8
0,5	7,1	-4,6
0,5005	8,7	-3,5
0,501	12,1	-2,3
0,5015	16,9	-1,5
0,502	21,6	-1,2
0,5025	25,0	-1,3
0,503	26,8	-1,9
0,5035	28,7	-2,8
0,504	32,3	-4,0
0,5045	38,0	-5,1
0,505	44,3	-5,8
0,5055	48,9	-6,0
0,506	50,5	-5,5
0,5065	48,7	-4,5
0,507	44,2	-3,3
0,5075	38,5	-2,4
0,508	32,8	-2,8
0,5085	27,2	-4,3
0,509	21,2	-6,2
0,5095	13,9	-7,5
0,51	5,0	-7,8
0,5105	-4,8	-6,9
0,511	-14,1	-5,0
0,5115	-21,8	-2,5
0,512	-27,6	0,3
0,5125	-31,9	3,1
0,513	-35,3	5,3
0,5135	-38,6	6,5
0,514	-41,6	6,5
0,5145	-43,7	5,5
0,515	-43,6	4,1
0,5155	-41,0	3,0
0,516	-36,5	2,9
0,5165	-30,7	4,3
0,517	-24,7	7,0
0,5175	-19,3	10,1
0,518	-14,7	13,0
0,5185	-10,8	15,2
0,519	-7,4	16,6
0,5195	-4,6	16,9
0,52	-2,6	16,3
0,5205	-1,8	15,1
0,521	-2,0	14,0
0,5215	-2,6	13,6
0,522	-3,3	14,1
0,5225	-4,1	15,5
0,523	-4,8	17,5
0,5235	-4,6	19,6
0,524	-3,0	21,2
0,5245	0,2	21,8
0,525	4,5	21,5
0,5255	8,8	20,7
0,526	12,6	19,8
0,5265	15,2	19,2
0,527	16,8	19,2
0,5275	19,1	20,2
0,528	24,0	22,2
0,5285	31,3	25,0
0,529	39,0	27,7
0,5295	44,7	29,5
0,53	47,6	30,1
0,5305	48,1	29,5
0,531	46,9	27,7
0,5315	44,3	25,3
0,532	40,2	22,7
0,5325	35,0	20,8
0,533	29,3	20,0
0,5335	23,3	20,3
0,534	16,7	21,3
0,5345	9,2	22,5
0,535	1,3	23,5
0,5355	-6,2	23,8
0,536	-12,7	23,4
0,5365	-18,6	22,3
0,537	-24,0	20,9
0,5375	-28,3	19,4
0,538	-30,7	18,4
0,5385	-31,0	18,2
0,539	-29,4	18,8
0,5395	-26,0	19,8
0,54	-21,4	21,0
0,5405	-16,3	22,0
0,541	-11,3	22,3
0,5415	-6,5	21,6
0,542	-2,0	20,3
0,5425	2,0	18,8
0,543	5,3	17,3
0,5435	7,9	16,4
0,544	9,9	16,4
0,5445	11,9	17,6
0,545	14,4	19,5
0,5455	17,8	21,6
0,546	21,9	23,3
0,5465	26,6	23,8
0,547	32,1	23,3
0,5475	38,1	21,9
0,548	43,6	20,0
0,5485	47,2	17,8
0,549	48,0	15,9
0,5495	46,0	15,1
0,55	42,0	15,3
0,5505	37,1	16,1
0,551	32,6	17,0
0,5515	29,5	17,5
0,552	27,7	17,3
0,5525	26,5	16,3
0,553	24,7	14,6
0,5535	21,8	12,3
0,554	18,0	9,5
0,5545	14,0	6,8
0,555	10,6	4,9
0,5555	8,2	4,1
0,556	7,0	4,5
0,5565	6,8	5,7
0,557	6,9	7,1
0,5575	6,7	8,1
0,558	5,8	8,4
0,5585	4,5	7,9
0,559	3,0	7,3
0,5595	1,6	6,9
0,56	0,7	7,3
0,5605	0,3	8,6
0,561	-0,2	10,5
0,5615	-1,2	12,8
0,562	-3,2	15,3
0,5625	-5,4	17,3
0,563	-7,2	18,5
0,5635	-8,4	18,7
0,564	-9,8	18,0
0,5645	-11,5	16,4
0,565	-13,3	14,5
0,5655	-14,5	12,9
0,566	-14,5	12,4
0,5665	-12,9	13,3
0,567	-10,3	15,2
0,5675	-7,2	17,1
0,568	-4,4	18,5
0,5685	-2,2	19,2
0,569	-0,6	18,8
0,5695	0,9	17,5
0,57	2,6	15,2
0,5705	4,7	12,3
0,571	6,8	9,6
0,5715	8,8	7,8
0,572	9,8	7,3
0,5725	9,1	7,9
0,573	6,4	9,4
0,5735	2,7	11,3
0,574	0,1	12,8
0,5745	0,7	13,3
0,575	4,9	12,4
0,5755	12,0	10,3
0,576	20,6	7,5
0,5765	29,5	4,5
0,577	37,5	2,0
0,5775	43,2	0,6
0,578	45,7	0,7
0,5785	44,9	2,3
0,579	41,9	5,0
0,5795	37,4	7,7
0,58	32,0	9,6
0,5805	25,8	10,3
0,581	18,7	9,7
0,5815	10,7	8,4
0,582	2,3	7,1
0,5825	-5,5	6,8
0,583	-11,9	7,7
0,5835	-16,2	9,3
0,584	-18,2	11,0
0,5845	-18,3	12,4
0,585	-17,2	13,4
0,5855	-15,2	13,8
0,586	-12,5	13,5
0,5865	-9,6	12,2
0,587	-7,3	9,9
0,5875	-6,3	7,1
0,588	-6,5	4,5
0,5885	-7,2	2,8
0,589	-7,4	2,0
0,5895	-6,3	2,3
0,59	-3,6	3,4
0,5905	0,6	4,8
0,591	5,9	5,6
0,5915	11,7	5,0
0,592	17,1	3,2
0,5925	21,6	0,8
0,593	24,6	-1,3
0,5935	26,5	-2,9
0,594	27,6	-3,8
0,5945	28,2	-3,6
0,595	28,4	-2,2
0,5955	27,9	-0,1
0,596	26,7	2,2
0,5965	24,9	3,9
0,597	23,0	4,8
0,5975	21,1	4,7
0,598	19,0	3,5
0,5985	16,6	1,8
0,599	14,0	0,3
0,5995	11,9	0,1
0,6	10,3	1,0
0,6005	9,1	2,7
0,601	7,7	4,7
0,6015	5,8	6,3
0,602	3,9	7,0
0,6025	2,7	6,5
0,603	2,1	4,8
0,6035	1,9	2,3
0,604	1,6	-0,5
0,6045	1,2	-2,9
0,605	1,6	-4,5
0,6055	3,3	-5,0
0,606	6,1	-4,8
0,6065	9,2	-3,9
0,607	11,6	-3,1
0,6075	12,8	-2,7
0,608	12,4	-3,3
0,6085	10,4	-4,6
0,609	7,3	-6,0
0,6095	4,0	-7,2
0,61	1,0	-8,1
0,6105	-2,3	-8,6
0,611	-6,1	-8,5
0,6115	-9,8	-7,5
0,612	-12,6	-5,7
0,6125	-14,8	-3,6
0,613	-16,8	-1,8
0,6135	-18,7	-0,9
0,614	-20,1	-1,2
0,6145	-20,7	-2,7
0,615	-20,9	-5,0
0,6155	-21,3	-7,3
0,616	-21,4	-8,8
0,6165	-20,7	-8,9
0,617	-18,6	-8,0
0,6175	-14,9	-6,9
0,618	-10,0	-6,2
0,6185	-4,5	-6,0
0,619	0,6	-6,5
0,6195	5,0	-7,5
0,62	8,5	-9,1
0,6205	11,1	-11,1
0,621	13,3	-13,3
0,6215	15,2	-15,0
0,622	16,8	-15,8
0,6225	18,1	-15,3
0,623	19,1	-13,7
0,6235	20,1	-11,8
0,624	20,9	-10,5
0,6245	21,5	-10,3
0,625	21,5	-10,9
0,6255	21,1	-11,9
0,626	20,3	-12,7
0,6265	19,5	-13,0
0,627	18,8	-13,0
0,6275	18,0	-13,1
0,628	16,9	-13,1
0,6285	15,2	-12,7
0,629	13,3	-11,9
0,6295	11,5	-11,3
0,63	11,8	-11,2
0,6305	17,6	-12,0
0,631	30,8	-13,7
0,6315	49,5	-16,0
0,632	68,5	-18,3
0,6325	82,3	-19,8
0,633	88,4	-20,1
0,6335	87,0	-19,7
0,634	80,1	-19,0
0,6345	69,9	-18,2
0,635	58,0	-17,4
0,6355	44,9	-17,0
0,636	31,0	-17,2
0,6365	16,5	-18,0
0,637	1,8	-19,3
0,6375	-11,9	-20,7
0,638	-23,7	-21,6
0,6385	-32,5	-21,6
0,639	-37,9	-20,5
0,6395	-39,6	-18,8
0,64	-38,3	-16,7
0,6405	-35,2	-14,9
0,641	-31,8	-13,8
0,6415	-29,5	-13,9
0,642	-28,9	-14,8
0,6425	-28,8	-16,3
0,643	-27,8	-17,7
0,6435	-25,4	-18,5
0,644	-22,4	-18,3
0,6445	-19,8	-17,0
0,645	-18,2	-15,0
0,6455	-17,7	-12,6
0,646	-18,0	-10,2
0,6465	-18,4	-8,2
0,647	-18,3	-6,7
0,6475	-17,3	-5,8
0,648	-16,2	-5,5
0,6485	-16,1	-5,5
0,649	-17,8	-5,5
0,6495	-21,3	-5,2
0,65	-25,5	-4,4
0,6505	-29,3	-3,4
0,651	-31,7	-2,4
0,6515	-32,1	-1,6
0,652	-30,2	-1,3
0,6525	-26,2	-1,9
0,653	-20,5	-3,4
0,6535	-13,9	-5,7
0,654	-7,3	-8,1
0,6545	-1,4	-9,8
0,655	3,5	-10,8
0,6555	7,7	-10,7
0,656	12,1	-9,6
0,6565	17,8	-7,8
0,657	25,3	-6,0
0,6575	33,0	-4,7
0,658	39,3	-4,5
0,6585	43,8	-5,5
0,659	47,1	-7,3
0,6595	50,3	-9,7
0,66	52,4	-12,1
0,6605	52,2	-13,8
0,661	49,0	-14,8
0,6615	43,8	-15,2
0,662	37,4	-15,1
0,6625	30,4	-14,8
0,663	23,3	-14,3
0,6635	17,1	-13,9
0,664	13,2	-13,8
0,6645	12,4	-14,1
0,665	14,1	-14,8
0,6655	17,3	-15,6
0,666	22,0	-15,7
0,6665	28,8	-15,0
0,667	37,6	-13,7
0,6675	46,9	-12,3
0,668	54,1	-11,3
0,6685	57,9	-10,7
0,669	57,8	-10,7
0,6695	54,6	-11,3
0,67	48,8	-12,6
0,6705	41,1	-14,3
0,671	31,6	-16,0
0,6715	20,6	-17,1
0,672	8,8	-17,1
0,6725	-3,5	-15,9
0,673	-16,3	-14,0
0,6735	-29,1	-11,9
0,674	-40,6	-10,4
0,6745	-49,2	-10,0
0,675	-53,6	-11,0
0,6755	-53,6	-13,0
0,676	-50,2	-15,7
0,6765	-45,3	-18,3
0,677	-40,9	-20,1
0,6775	-38,1	-20,7
0,678	-36,5	-20,2
0,6785	-34,7	-18,8
0,679	-31,8	-16,9
0,6795	-27,8	-15,2
0,68	-23,1	-13,8
0,6805	-17,8	-13,1
0,681	-12,3	-13,0
0,6815	-7,1	-13,6
0,682	-2,7	-14,3
0,6825	0,5	-14,7
0,683	3,0	-14,0
0,6835	5,3	-12,3
0,684	8,0	-9,8
0,6845	10,9	-7,2
0,685	13,4	-5,2
0,6855	15,2	-4,2
0,686	16,0	-4,7
0,6865	16,0	-6,4
0,687	15,7	-9,0
0,6875	15,4	-11,7
0,688	15,7	-13,6
0,6885	16,3	-14,1
0,689	17,3	-13,1
0,6895	18,5	-10,6
0,69	19,4	-7,2
0,6905	19,5	-3,6
0,691	18,8	-0,7
0,6915	17,7	1,0
0,692	16,5	1,2
0,6925	15,5	0,3
0,693	14,9	-1,3
0,6935	14,9	-2,9
0,694	15,0	-3,5
0,6945	14,8	-2,7
0,695	14,2	-0,8
0,6955	13,4	1,5
0,696	13,7	3,5
0,6965	15,8	5,1
0,697	19,4	6,0
0,6975	23,0	6,4
0,698	24,5	6,0
0,6985	23,5	4,8
0,699	20,2	3,2
0,6995	15,3	1,9
0,7	9,5	1,6
0,7005	3,8	2,2
0,701	-1,2	3,3
0,7015	-4,9	4,4
0,702	-7,1	4,7
0,7025	-7,4	3,7
0,703	-6,3	1,4
0,7035	-5,2	-1,7
0,704	-5,4	-4,7
0,7045	-7,9	-6,9
0,705	-11,9	-7,7
0,7055	-15,8	-7,2
0,706	-17,8	-5,9
0,7065	-17,3	-4,4
0,707	-14,9	-3,0
0,7075	-12,2	-2,3
0,708	-9,8	-2,8
0,7085	-7,5	-4,2
0,709	-4,7	-5,6
0,7095	-1,4	-6,8
0,71	2,0	-7,4
0,7105	4,9	-7,4
0,711	7,5	-6,9
0,7115	9,7	-5,9
0,712	11,4	-4,5
0,7125	12,0	-3,0
0,713	11,1	-1,7
0,7135	9,4	-1,2
0,714	7,6	-1,4
0,7145	6,5	-2,1
0,715	5,9	-3,1
0,7155	5,7	-4,0
0,716	6,2	-4,4
0,7165	7,4	-4,0
0,717	8,7	-2,8
0,7175	9,1	-1,5
0,718	7,8	-0,3
0,7185	5,3	0,5
0,719	2,5	0,6
0,7195	0,0	0,1
0,72	-2,0	-1,2
0,7205	-3,7	-2,9
0,721	-5,5	-4,9
0,7215	-7,6	-6,3
0,722	-9,8	-6,7
0,7225	-11,8	-6,1
0,723	-13,2	-4,5
0,7235	-13,9	-2,3
0,724	-13,7	-0,4
0,7245	-12,3	0,2
0,725	-10,2	-0,8
0,7255	-7,8	-2,8
0,726	-5,7	-5,3
0,7265	-4,1	-7,5
0,727	-3,0	-9,0
0,7275	-2,2	-9,2
0,728	-0,9	-8,0
0,7285	1,4	-5,7
0,729	5,0	-3,0
0,7295	9,5	-0,8
0,73	14,2	0,3
0,7305	18,3	0,1
0,731	21,3	-1,4
0,7315	22,6	-3,6
0,732	22,4	-5,6
0,7325	20,9	-6,9
0,733	18,7	-7,0
0,7335	16,2	-6,2
0,734	13,8	-5,0
0,7345	11,8	-4,1
0,735	10,5	-3,7
0,7355	9,3	-4,0
0,736	8,2	-5,3
0,7365	7,1	-7,9
0,737	5,8	-11,3
0,7375	4,4	-14,9
0,738	2,4	-17,7
0,7385	-0,6	-19,2
0,739	-4,7	-19,1
0,7395	-9,3	-17,7
0,74	-13,4	-15,4
0,7405	-15,9	-13,4
0,741	-16,4	-12,6
0,7415	-15,0	-13,5
0,742	-11,8	-15,4
0,7425	-7,2	-17,6
0,743	-1,2	-19,5
0,7435	5,8	-20,7
0,744	13,9	-20,9
0,7445	22,3	-20,1
0,745	29,4	-18,0
0,7455	33,8	-14,9
0,746	34,7	-11,8
0,7465	32,5	-9,3
0,747	27,9	-8,1
0,7475	21,8	-7,9
0,748	15,0	-8,7
0,7485	8,3	-10,2
0,749	2,7	-11,6
0,7495	-1,3	-12,2
0,75	-3,4	-11,6
0,7505	-3,9	-10,0
0,751	-2,8	-8,3
0,7515	-0,2	-6,9
0,752	3,0	-6,3
0,7525	5,5	-6,6
0,753	6,7	-8,0
0,7535	6,7	-10,3
0,754	5,9	-13,0
0,7545	4,3	-15,4
0,755	2,2	-17,1
0,7555	-0,1	-17,8
0,756	-2,3	-17,8
0,7565	-4,3	-17,0
0,757	-6,4	-15,8
0,7575	-7,8	-14,6
0,758	-7,6	-14,2
0,7585	-4,5	-15,0
0,759	4,5	-16,9
0,7595	22,4	-19,0
0,76	49,4	-20,5
0,7605	80,4	-21,0
0,761	106,5	-20,3
0,7615	121,3	-18,7
0,762	123,6	-16,6
0,7625	116,2	-14,4
0,763	102,9	-12,8
0,7635	86,9	-12,0
0,764	69,8	-12,2
0,7645	52,1	-13,0
0,765	33,9	-14,1
0,7655	15,6	-15,0
0,766	-2,2	-15,3
0,7665	-18,8	-14,7
0,767	-32,9	-13,7
0,7675	-43,6	-12,8
0,768	-50,2	-12,4
0,7685	-53,2	-12,8
0,769	-53,9	-14,2
0,7695	-53,8	-16,4
0,77	-53,8	-19,3
0,7705	-53,9	-22,1
0,771	-53,0	-24,6
0,7715	-49,9	-26,3
0,772	-45,1	-26,8
0,7725	-40,8	-26,2
0,773	-38,6	-24,5
0,7735	-38,0	-22,3
0,774	-37,3	-20,6
0,7745	-34,8	-20,0
0,775	-29,9	-20,5
0,7755	-23,2	-21,6
0,776	-15,1	-22,7
0,7765	-6,2	-23,4
0,777	2,9	-23,5
0,7775	11,8	-22,8
0,778	19,6	-21,3
0,7785	25,7	-19,3
0,779	29,6	-17,4
0,7795	31,6	-16,0
0,78	32,4	-15,3
0,7805	33,0	-15,2
0,781	34,0	-15,8
0,7815	35,2	-17,0
0,782	35,9	-18,9
0,7825	35,7	-20,9
0,783	34,9	-22,1
0,7835	34,2	-22,3
0,784	34,2	-21,7
0,7845	34,8	-20,8
0,785	35,7	-20,0
0,7855	36,5	-19,6
0,786	37,0	-19,8
0,7865	36,9	-20,9
0,787	36,0	-22,7
0,7875	34,1	-24,3
0,788	31,3	-25,4
0,7885	28,1	-25,8
0,789	24,6	-25,6
0,7895	20,9	-25,2
0,79	17,4	-24,6
0,7905	14,4	-24,0
0,791	12,4	-23,9
0,7915	11,6	-24,5
0,792	12,0	-25,5
0,7925	13,0	-26,8
0,793	13,8	-28,2
0,7935	13,7	-29,3
0,794	12,9	-29,8
0,7945	12,3	-29,3
0,795	12,1	-27,8
0,7955	12,2	-25,9
0,796	11,8	-23,9
0,7965	10,2	-22,4
0,797	6,7	-21,7
0,7975	1,6	-22,2
0,798	-4,3	-23,8
0,7985	-9,2	-26,1
0,799	-12,0	-28,3
0,7995	-12,5	-29,3
0,8	-11,3	-28,7
0,8005	-9,6	-26,7
0,801	-8,0	-23,9
0,8015	-6,4	-21,2
0,802	-4,8	-19,2
0,8025	-3,0	-18,4
0,803	-0,6	-18,9
0,8035	2,9	-20,4
0,804	7,3	-22,2
0,8045	11,8	-23,7
0,805	15,3	-24,2
0,8055	17,0	-23,5
0,806	16,7	-21,8
0,8065	14,7	-19,7
0,807	12,0	-17,6
0,8075	9,6	-16,3
0,808	8,9	-16,3
0,8085	10,9	-17,3
0,809	15,5	-18,8
0,8095	21,3	-20,3
0,81	26,3	-21,5
0,8105	29,0	-22,3
0,811	29,2	-22,4
0,8115	27,8	-21,5
0,812	25,6	-19,8
0,8125	24,0	-17,8
0,813	23,9	-16,3
0,8135	25,2	-15,7
0,814	27,1	-16,1
0,8145	28,4	-17,3
0,815	28,0	-19,0
0,8155	25,6	-20,8
0,816	21,4	-21,8
0,8165	15,8	-21,5
0,817	9,4	-20,3
0,8175	2,8	-18,7
0,818	-3,7	-17,2
0,8185	-9,3	-16,0
0,819	-13,3	-15,7
0,8195	-15,4	-16,5
0,82	-15,8	-18,2
0,8205	-15,0	-20,5
0,821	-13,6	-22,8
0,8215	-12,0	-24,3
0,822	-10,0	-24,7
0,8225	-7,7	-24,0
0,823	-5,0	-22,4
0,8235	-2,3	-20,4
0,824	0,5	-18,6
0,8245	3,3	-17,7
0,825	6,0	-17,9
0,8255	8,4	-18,8
0,826	10,1	-19,9
0,8265	11,0	-21,1
0,827	11,4	-21,8
0,8275	11,6	-21,9
0,828	11,5	-21,1
0,8285	10,8	-19,5
0,829	9,2	-17,7
0,8295	7,0	-16,2
0,83	4,3	-15,7
0,8305	1,2	-16,3
0,831	-1,9	-17,9
0,8315	-3,6	-19,7
0,832	-3,2	-21,2
0,8325	-0,8	-21,6
0,833	2,1	-20,8
0,8335	4,3	-19,2
0,834	5,9	-17,4
0,8345	7,3	-15,9
0,835	8,1	-15,0
0,8355	7,4	-14,7
0,836	5,1	-15,1
0,8365	1,6	-16,2
0,837	-2,3	-17,8
0,8375	-6,2	-19,4
0,838	-10,0	-20,7
0,8385	-13,6	-21,3
0,839	-15,9	-21,3
0,8395	-16,6	-20,5
0,84	-16,5	-18,8
0,8405	-16,6	-16,8
0,841	-17,2	-15,5
0,8415	-17,5	-15,4
0,842	-17,2	-16,3
0,8425	-16,1	-17,3
0,843	-14,8	-17,8
0,8435	-13,0	-17,5
0,844	-9,7	-16,5
0,8445	-3,8	-14,9
0,845	4,3	-12,8
0,8455	13,8	-10,4
0,846	23,7	-8,3
0,8465	32,8	-7,0
0,847	39,5	-6,8
0,8475	42,4	-7,6
0,848	41,3	-9,2
0,8485	36,8	-11,1
0,849	30,8	-12,7
0,8495	25,2	-13,0
0,85	21,0	-12,1
0,8505	18,1	-10,3
0,851	15,4	-8,2
0,8515	11,4	-6,1
0,852	5,5	-4,5
0,8525	-2,0	-3,9
0,853	-9,8	-4,5
0,8535	-16,1	-6,2
0,854	-20,0	-8,3
0,8545	-21,1	-10,2
0,855	-20,0	-11,4
0,8555	-17,6	-11,5
0,856	-14,5	-10,9
0,8565	-11,3	-9,7
0,857	-7,7	-8,4
0,8575	-3,5	-7,9
0,858	1,5	-8,5
0,8585	6,6	-10,0
0,859	11,0	-11,8
0,8595	14,0	-13,4
0,86	15,4	-14,4
0,8605	15,5	-14,5
0,861	15,1	-13,7
0,8615	14,8	-11,8
0,862	15,1	-9,0
0,8625	16,7	-5,9
0,863	19,2	-3,2
0,8635	22,0	-1,7
0,864	24,3	-1,7
0,8645	26,2	-2,8
0,865	27,7	-4,6
0,8655	29,2	-6,2
0,866	30,3	-7,0
0,8665	30,4	-6,7
0,867	28,6	-5,7
0,8675	24,5	-4,5
0,868	18,9	-3,5
0,8685	12,9	-2,9
0,869	7,5	-3,2
0,8695	2,8	-4,5
0,87	-1,0	-6,7
0,8705	-3,9	-9,3
0,871	-6,0	-11,7
0,8715	-8,1	-13,1
0,872	-10,5	-13,2
0,8725	-12,8	-12,0
0,873	-14,3	-10,3
0,8735	-14,3	-8,4
0,874	-12,3	-7,1
0,8745	-8,6	-6,9
0,875	-3,7	-7,8
0,8755	1,9	-9,1
0,876	7,6	-10,6
0,8765	12,8	-12,1
0,877	16,3	-13,5
0,8775	16,7	-14,3
0,878	13,8	-14,1
0,8785	9,0	-12,5
0,879	4,8	-9,8
0,8795	3,0	-6,6
0,88	4,0	-3,9
0,8805	7,4	-2,4
0,881	12,1	-2,4
0,8815	16,9	-3,3
0,882	19,9	-4,6
0,8825	20,9	-5,4
0,883	23,3	-5,4
0,8835	32,2	-4,4
0,884	49,4	-3,0
0,8845	71,3	-1,9
0,885	90,9	-1,4
0,8855	102,7	-1,6
0,886	104,8	-2,6
0,8865	98,3	-4,2
0,887	86,0	-6,1
0,8875	71,2	-8,1
0,888	55,7	-9,9
0,8885	40,3	-11,1
0,889	25,4	-11,5
0,8895	10,9	-11,0
0,89	-2,5	-9,8
0,8905	-14,2	-8,4
0,891	-23,4	-7,7
0,8915	-29,8	-8,0
0,892	-33,2	-9,1
0,8925	-33,8	-10,5
0,893	-32,1	-11,6
0,8935	-29,1	-12,4
0,894	-26,0	-12,7
0,8945	-23,2	-12,0
0,895	-19,8	-10,3
0,8955	-15,2	-7,8
0,896	-9,3	-5,4
0,8965	-3,3	-3,8
0,897	1,8	-3,2
0,8975	5,7	-3,5
0,898	8,5	-4,4
0,8985	10,4	-5,5
0,899	11,7	-6,2
0,8995	12,8	-5,8
0,9	14,0	-4,6
0,9005	15,6	-3,0
0,901	17,6	-1,7
0,9015	19,6	-0,6
0,902	20,8	-0,1
0,9025	20,4	-0,0
0,903	18,0	-0,7
0,9035	14,4	-2,3
0,904	10,8	-4,5
0,9045	8,2	-7,1
0,905	7,0	-9,2
0,9055	6,8	-10,4
0,906	7,4	-10,6
0,9065	8,2	-9,7
0,907	8,6	-8,0
0,9075	8,6	-6,3
0,908	8,3	-5,3
0,9085	8,1	-5,4
0,909	7,5	-6,2
0,9095	5,7	-7,1
0,91	2,5	-7,6
0,9105	-1,4	-7,7
0,911	-5,1	-7,2
0,9115	-8,0	-6,1
0,912	-10,3	-4,4
0,9125	-11,7	-2,5
0,913	-11,8	-0,6
0,9135	-10,2	0,4
0,914	-7,6	0,1
0,9145	-4,9	-1,7
0,915	-3,7	-4,7
0,9155	-5,0	-7,8
0,916	-9,0	-9,6
0,9165	-14,8	-9,7
0,917	-21,0	-8,1
0,9175	-25,9	-5,6
0,918	-28,5	-2,8
0,9185	-28,3	-0,3
0,919	-26,7	1,3
0,9195	-25,2	2,0
0,92	-24,7	1,4
0,9205	-25,3	-0,2
0,921	-26,2	-2,3
0,9215	-26,7	-3,9
0,922	-26,5	-4,8
0,9225	-26,0	-5,0
0,923	-26,0	-4,9
0,9235	-27,0	-4,6
0,924	-29,2	-4,8
0,9245	-32,1	-5,6
0,925	-34,8	-7,1
0,9255	-36,1	-8,7
0,926	-35,2	-10,1
0,9265	-32,0	-11,0
0,927	-26,6	-11,1
0,9275	-19,6	-10,4
0,928	-12,0	-8,9
0,9285	-5,6	-6,8
0,929	-2,2	-4,4
0,9295	-2,5	-2,4
0,93	-5,4	-1,1
0,9305	-8,7	-0,6
0,931	-9,6	-1,2
0,9315	-5,8	-2,8
0,932	3,0	-5,3
0,9325	14,7	-7,9
0,933	26,3	-9,8
0,9335	36,7	-10,7
0,934	46,8	-10,7
0,9345	56,8	-10,3
0,935	65,1	-9,6
0,9355	69,5	-9,2
0,936	68,8	-9,5
0,9365	63,6	-10,6
0,937	55,8	-12,3
0,9375	46,8	-14,3
0,938	37,3	-15,8
0,9385	27,0	-16,4
0,939	16,2	-15,9
0,9395	6,0	-14,7
0,94	-1,8	-13,2
0,9405	-5,7	-11,8
0,941	-5,8	-11,2
0,9415	-3,0	-11,4
0,942	0,9	-12,6
0,9425	4,4	-14,3
0,943	6,8	-15,8
0,9435	7,9	-16,6
0,944	7,6	-16,3
0,9445	5,6	-15,2
0,945	2,0	-13,5
0,9455	-2,1	-11,6
0,946	-5,4	-9,7
0,9465	-7,0	-8,2
0,947	-7,0	-7,5
0,9475	-5,7	-7,5
0,948	-3,1	-8,3
0,9485	0,5	-9,6
0,949	5,0	-10,9
0,9495	10,2	-11,6
0,95	15,7	-11,5
0,9505	20,6	-10,9
0,951	23,9	-10,3
0,9515	25,3	-10,0
0,952	24,8	-10,3
0,9525	22,8	-11,5
0,953	19,7	-13,7
0,9535	16,4	-16,7
0,954	13,7	-19,9
0,9545	11,8	-22,8
0,955	10,7	-24,6
0,9555	10,2	-25,2
0,956	10,5	-24,6
0,9565	11,4	-23,2
0,957	12,3	-21,7
0,9575	12,3	-20,6
0,958	10,7	-20,4
0,9585	8,1	-21,1
0,959	5,3	-22,5
0,9595	3,0	-23,8
0,96	1,7	-24,8
0,9605	1,1	-25,2
0,961	0,6	-24,7
0,9615	-0,1	-23,3
0,962	-0,8	-21,1
0,9625	-0,8	-18,9
0,963	0,4	-17,2
0,9635	2,5	-16,3
0,964	4,2	-16,2
0,9645	4,4	-16,7
0,965	2,8	-17,7
0,9655	-0,5	-19,0
0,966	-5,5	-20,1
0,9665	-11,6	-20,8
0,967	-17,4	-20,9
0,9675	-21,3	-20,7
0,968	-22,5	-20,3
0,9685	-21,2	-19,9
0,969	-18,2	-20,0
0,9695	-14,7	-21,0
0,97	-11,2	-22,7
0,9705	-8,0	-24,6
0,971	-4,6	-26,1
0,9715	-0,5	-26,7
0,972	4,8	-26,5
0,9725	10,8	-26,0
0,973	16,4	-25,6
0,9735	19,8	-25,5
0,974	20,3	-25,7
0,9745	18,4	-26,3
0,975	15,4	-27,3
0,9755	13,0	-28,6
0,976	11,8	-29,8
0,9765	11,4	-30,8
0,977	11,2	-31,4
0,9775	10,4	-31,2
0,978	9,3	-30,1
0,9785	8,5	-28,4
0,979	8,0	-26,2
0,9795	7,3	-23,8
0,98	5,8	-21,7
0,9805	3,8	-20,7
0,981	1,6	-21,1
0,9815	-0,4	-22,8
0,982	-2,2	-25,1
0,9825	-3,6	-27,0
0,983	-4,3	-27,8
0,9835	-4,0	-27,3
0,984	-3,0	-26,2
0,9845	-1,9	-25,3
0,985	-0,9	-24,8
0,9855	-0,2	-24,8
0,986	0,4	-25,6
0,9865	0,8	-27,0
0,987	1,1	-29,2
0,9875	0,9	-31,9
0,988	0,1	-34,3
0,9885	-1,4	-36,1
0,989	-2,9	-36,7
0,9895	-3,4	-36,1
0,99	-2,0	-34,4
0,9905	1,8	-32,3
0,991	7,2	-30,8
0,9915	12,5	-30,2
0,992	16,3	-30,5
0,9925	17,6	-31,6
0,993	16,2	-33,0
0,9935	12,6	-34,3
0,994	8,0	-34,8
0,9945	3,8	-34,0
0,995	1,5	-31,8
0,9955	0,9	-28,9
0,996	1,6	-26,2
0,9965	2,8	-24,2
0,997	3,8	-23,2
0,9975	4,2	-23,3
0,998	3,8	-24,2
0,9985	2,8	-25,4
0,999	1,2	-26,6
0,9995	-0,7	-27,1
1	-2,2	-26,5
1,0005	-0,7	-25,1
1,001	6,6	-23,2
1,0015	19,4	-21,2
1,002	33,2	-19,4
1,0025	41,6	-18,3
1,003	42,1	-17,9
1,0035	35,5	-18,5
1,004	24,5	-19,8
1,0045	11,2	-21,0
1,005	-3,2	-21,6
1,0055	-17,5	-21,1
1,006	-30,8	-19,4
1,0065	-43,1	-17,0
1,007	-54,3	-14,6
1,0075	-64,0	-13,0
1,008	-71,4	-12,8
1,0085	-76,0	-13,8
1,009	-77,4	-15,2
1,0095	-75,6	-16,7
1,01	-70,5	-17,7
1,0105	-62,9	-18,2
1,011	-54,3	-17,7
1,0115	-45,8	-16,4
1,012	-37,3	-14,3
1,0125	-27,3	-12,3
1,013	-13,9	-11,2
1,0135	2,3	-11,2
1,014	18,8	-12,2
1,0145	32,8	-13,8
1,015	42,7	-15,8
1,0155	48,0	-17,8
1,016	49,4	-18,8
1,0165	47,8	-18,5
1,017	45,2	-17,5
1,0175	42,8	-16,5
1,018	41,5	-16,3
1,0185	41,2	-17,0
1,019	41,2	-18,5
1,0195	40,3	-20,6
1,02	37,8	-22,8
1,0205	33,3	-25,1
1,021	27,4	-27,1
1,0215	20,9	-28,2
1,022	14,8	-28,2
1,0225	9,9	-27,3
1,023	6,6	-26,3
1,0235	4,7	-25,3
1,024	3,7	-24,6
1,0245	2,9	-24,6
1,025	1,8	-25,2
1,0255	0,8	-26,3
1,026	0,1	-27,7
1,0265	-0,2	-28,9
1,027	-0,2	-29,4
1,0275	0,1	-29,1
1,028	0,7	-27,8
1,0285	2,0	-25,9
1,029	3,8	-23,7
1,0295	5,8	-21,6
1,03	7,8	-20,3
1,0305	9,5	-19,9
1,031	11,5	-20,7
1,0315	15,0	-22,3
1,032	20,4	-24,6
1,0325	26,6	-26,6
1,033	32,2	-27,6
1,0335	35,8	-27,4
1,034	36,5	-26,3
1,0345	34,2	-24,8
1,035	29,3	-23,0
1,0355	22,9	-21,4
1,036	16,4	-20,7
1,0365	10,8	-21,3
1,037	6,5	-23,0
1,0375	3,6	-25,2
1,038	1,8	-26,9
1,0385	0,6	-27,6
1,039	-0,4	-27,1
1,0395	-1,2	-25,8
1,04	-1,2	-24,3
1,0405	-0,4	-23,2
1,041	0,4	-23,0
1,0415	0,7	-23,8
1,042	-0,0	-25,1
1,0425	-1,1	-26,4
1,043	-1,5	-27,5
1,0435	-0,6	-28,0
1,044	1,7	-27,9
1,0445	5,1	-27,2
1,045	8,8	-25,6
1,0455	12,1	-23,3
1,046	14,3	-20,8
1,0465	14,9	-18,7
1,047	14,1	-17,8
1,0475	12,3	-18,2
1,048	10,3	-19,7
1,0485	8,2	-21,4
1,049	5,8	-22,7
1,0495	3,1	-23,1
1,05	0,2	-22,5
1,0505	-2,5	-21,5
1,051	-4,5	-20,4
1,0515	-5,6	-19,7
1,052	-6,0	-19,3
1,0525	-6,3	-19,8
1,053	-7,5	-21,1
1,0535	-10,3	-23,3
1,054	-14,2	-25,8
1,0545	-18,0	-28,1
1,055	-20,8	-29,4
1,0555	-22,4	-29,6
1,056	-23,3	-28,8
1,0565	-23,6	-27,1
1,057	-23,5	-25,3
1,0575	-23,2	-24,2
1,058	-22,2	-24,3
1,0585	-19,9	-25,5
1,059	-15,7	-27,2
1,0595	-9,2	-28,7
1,06	-0,9	-29,6
1,0605	8,1	-29,5
1,061	16,1	-28,5
1,0615	21,8	-26,8
1,062	25,5	-24,9
1,0625	27,7	-23,2
1,063	29,1	-22,3
1,0635	29,9	-22,3
1,064	30,0	-23,2
1,0645	29,8	-24,9
1,065	29,0	-27,1
1,0655	27,2	-29,1
1,066	24,0	-30,2
1,0665	19,8	-29,8
1,067	16,0	-28,3
1,0675	14,5	-26,6
1,068	16,0	-24,9
1,0685	19,4	-23,4
1,069	22,4	-22,3
1,0695	23,9	-21,7
1,07	23,3	-22,0
1,0705	19,8	-23,1
1,071	12,4	-24,8
1,0715	1,5	-26,3
1,072	-11,0	-27,2
1,0725	-22,9	-27,0
1,073	-32,6	-25,7
1,0735	-39,5	-23,6
1,074	-44,2	-21,4
1,0745	-47,5	-19,8
1,075	-49,3	-19,3
1,0755	-48,8	-19,9
1,076	-45,4	-21,1
1,0765	-39,8	-22,2
1,077	-32,8	-22,7
1,0775	-25,8	-22,2
1,078	-18,8	-20,9
1,0785	-11,7	-18,7
1,079	-4,7	-16,3
1,0795	1,8	-14,2
1,08	6,9	-13,0
1,0805	10,1	-13,0
1,081	11,6	-13,8
1,0815	12,1	-15,2
1,082	12,4	-16,7
1,0825	12,9	-17,7
1,083	13,8	-17,6
1,0835	15,0	-16,4
1,084	16,3	-14,6
1,0845	16,8	-13,0
1,085	16,0	-11,8
1,0855	13,8	-11,3
1,086	10,1	-11,4
1,0865	5,3	-12,4
1,087	0,2	-14,2
1,0875	-3,9	-16,2
1,088	-6,0	-17,8
1,0885	-6,2	-18,5
1,089	-5,1	-18,3
1,0895	-3,3	-17,3
1,09	-1,4	-15,8
1,0905	-0,1	-14,4
1,091	0,8	-13,7
1,0915	2,2	-14,0
1,092	5,1	-15,3
1,0925	9,7	-17,1
1,093	15,2	-18,7
1,0935	20,0	-19,4
1,094	23,0	-18,9
1,0945	24,3	-17,4
1,095	23,9	-15,1
1,0955	22,3	-12,7
1,096	19,3	-11,1
1,0965	15,4	-10,7
1,097	11,5	-11,6
1,0975	8,3	-13,6
1,098	6,4	-16,3
1,0985	5,5	-19,1
1,099	5,1	-21,3
1,0995	4,7	-22,3
1,1	4,3	-21,9
1,1005	4,2	-20,7
1,101	4,9	-19,3
1,1015	6,7	-17,9
1,102	9,3	-16,9
1,1025	12,4	-16,9
1,103	15,3	-17,9
1,1035	17,4	-20,0
1,104	18,8	-22,3
1,1045	19,5	-24,2
1,105	19,9	-24,9
1,1055	20,2	-24,4
1,106	20,7	-22,8
1,1065	21,5	-20,5
1,107	22,3	-18,2
1,1075	22,9	-16,7
1,108	22,7	-16,8
1,1085	21,7	-18,5
1,109	20,0	-21,3
1,1095	17,7	-24,4
1,11	15,3	-26,8
1,1105	12,8	-27,9
1,111	10,1	-27,3
1,1115	6,9	-25,3
1,112	3,3	-22,1
1,1125	-0,5	-18,6
1,113	-4,8	-15,5
1,1135	-9,9	-13,4
1,114	-15,5	-12,8
1,1145	-20,7	-13,5
1,115	-24,2	-15,3
1,1155	-25,6	-17,5
1,116	-24,5	-19,2
1,1165	-20,0	-19,9
1,117	-11,7	-19,5
1,1175	-1,2	-18,4
1,118	8,6	-17,1
1,1185	15,4	-15,8
1,119	18,9	-15,1
1,1195	19,9	-15,2
1,12	19,3	-16,3
1,1205	18,2	-18,0
1,121	17,3	-20,1
1,1215	16,7	-21,9
1,122	15,5	-22,8
1,1225	12,8	-22,4
1,123	8,5	-20,9
1,1235	4,0	-18,8
1,124	0,7	-16,9
1,1245	-0,9	-16,0
1,125	-1,4	-16,5
1,1255	-2,2	-18,2
1,126	-4,8	-20,2
1,1265	-9,5	-21,9
1,127	-16,1	-22,8
1,1275	-23,4	-22,7
1,128	-29,7	-21,6
1,1285	-33,1	-19,8
1,129	-32,8	-17,9
1,1295	-29,0	-16,3
1,13	-22,9	-15,4
1,1305	-15,8	-15,6
1,131	-9,5	-16,5
1,1315	-4,7	-17,9
1,132	-1,5	-19,4
1,1325	0,6	-20,5
1,133	2,3	-20,7
1,1335	4,2	-20,1
1,134	6,2	-19,4
1,1345	8,3	-19,2
1,135	10,0	-19,5
1,1355	10,8	-20,4
1,136	10,5	-21,7
1,1365	9,4	-23,6
1,137	8,3	-25,9
1,1375	8,0	-28,2
1,138	9,1	-29,8
1,1385	11,7	-30,5
1,139	15,5	-30,3
1,1395	19,6	-29,4
1,14	22,6	-28,0
1,1405	23,3	-26,6
1,141	21,4	-26,0
1,1415	17,5	-26,4
1,142	12,5	-27,5
1,1425	7,6	-28,8
1,143	3,3	-29,7
1,1435	-0,2	-30,2
1,144	-2,8	-30,0
1,1445	-4,8	-28,8
1,145	-6,3	-26,6
1,1455	-7,1	-23,6
1,146	-6,8	-20,5
1,1465	-5,0	-17,8
1,147	-1,6	-16,0
1,1475	2,5	-15,0
1,148	6,0	-14,9
1,1485	8,3	-15,4
1,149	9,4	-16,0
1,1495	9,4	-16,0
1,15	8,3	-15,2
1,1505	6,1	-14,1
1,151	3,3	-13,0
1,1515	0,4	-12,2
1,152	-2,2	-11,6
1,1525	-4,4	-11,4
1,153	-6,0	-11,8
1,1535	-6,9	-13,0
1,154	-6,9	-14,8
1,1545	-6,4	-16,5
1,155	-5,5	-17,5
1,1555	-4,0	-17,3
1,156	-1,7	-15,8
1,1565	1,0	-13,6
1,157	3,6	-11,2
1,1575	5,6	-9,1
1,158	7,0	-7,8
1,1585	7,9	-7,7
1,159	8,1	-8,3
1,1595	7,7	-9,2
1,16	6,8	-9,9
1,1605	5,9	-10,0
1,161	5,5	-9,1
1,1615	6,2	-7,3
1,162	8,3	-4,6
1,1625	11,8	-1,3
1,163	16,2	2,0
1,1635	20,2	4,5
1,164	23,2	5,7
1,1645	24,8	5,6
1,165	24,8	4,3
1,1655	23,4	2,7
1,166	20,4	1,8
1,1665	15,8	2,3
1,167	10,2	4,0
1,1675	4,4	6,3
1,168	-0,9	8,5
1,1685	-5,2	10,3
1,169	-8,3	11,2
1,1695	-10,4	10,9
1,17	-11,7	9,5
1,1705	-12,3	7,2
1,171	-11,9	4,8
1,1715	-11,0	2,7
1,172	-9,9	1,6
1,1725	-9,2	1,3
1,173	-8,5	2,0
1,1735	-7,7	3,2
1,174	-6,1	4,3
1,1745	-3,5	4,9
1,175	0,2	4,4
1,1755	4,3	3,2
1,176	7,7	1,6
1,1765	9,4	0,4
1,177	9,5	-0,1
1,1775	8,7	0,3
1,178	7,6	1,6
1,1785	6,6	3,3
1,179	6,3	5,2
1,1795	7,6	6,5
1,18	10,3	6,9
1,1805	13,7	6,2
1,181	16,3	4,6
1,1815	17,7	2,7
1,182	17,2	1,3
1,1825	15,0	0,7
1,183	11,6	1,3
1,1835	7,7	2,9
1,184	3,8	4,8
1,1845	0,6	6,5
1,185	-1,5	7,7
1,1855	-3,1	8,3
1,186	-4,6	8,3
1,1865	-6,3	7,3
1,187	-7,4	5,5
1,1875	-7,2	3,4
1,188	-5,8	1,7
1,1885	-4,1	0,9
1,189	-2,6	1,3
1,1895	-1,6	2,6
1,19	-0,8	4,2
1,1905	0,1	5,4
1,191	1,6	5,5
1,1915	3,8	3,8
1,192	6,2	0,9
1,1925	8,7	-2,4
1,193	10,8	-5,3
1,1935	12,4	-7,0
1,194	13,9	-7,4
1,1945	15,9	-6,3
1,195	18,6	-3,9
1,1955	22,6	-1,0
1,196	29,9	1,8
1,1965	43,7	3,7
1,197	65,2	4,5
1,1975	90,7	4,2
1,198	112,1	2,9
1,1985	122,1	1,1
1,199	117,9	-0,5
1,1995	101,5	-1,0
1,2	77,5	-0,1
1,2005	50,8	1,7
1,201	25,2	3,3
1,2015	2,5	4,5
1,202	-16,8	4,9
1,2025	-33,0	4,4
1,203	-46,7	3,1
1,2035	-57,9	1,0
1,204	-66,1	-1,5
1,2045	-70,0	-3,8
1,205	-69,0	-5,1
1,2055	-63,4	-5,3
1,206	-55,1	-4,4
1,2065	-46,9	-2,8
1,207	-41,3	-0,8
1,2075	-38,8	0,7
1,208	-37,0	0,9
1,2085	-33,1	-0,4
1,209	-26,0	-2,7
1,2095	-16,6	-5,0
1,21	-6,7	-6,4
1,2105	2,5	-6,5
1,211	10,4	-5,4
1,2115	16,9	-3,4
1,212	21,9	-1,0
1,2125	25,6	1,8
1,213	28,3	4,6
1,2135	30,5	6,7
1,214	32,0	7,7
1,2145	32,8	7,4
1,215	32,6	6,6
1,2155	31,4	5,8
1,216	29,5	5,7
1,2165	27,2	6,3
1,217	25,3	7,5
1,2175	24,5	8,8
1,218	25,2	9,7
1,2185	26,7	10,0
1,219	27,5	9,4
1,2195	26,4	7,8
1,22	23,3	5,5
1,2205	18,9	2,6
1,221	14,1	-0,4
1,2215	9,7	-2,8
1,222	6,1	-4,0
1,2225	3,3	-4,1
1,223	1,1	-3,4
1,2235	-0,7	-2,2
1,224	-2,0	-1,1
1,2245	-2,7	-0,8
1,225	-2,8	-1,3
1,2255	-2,3	-2,4
1,226	-2,1	-3,8
1,2265	-2,3	-5,0
1,227	-3,1	-5,9
1,2275	-3,9	-6,1
1,228	-4,2	-5,7
1,2285	-3,9	-4,7
1,229	-3,2	-3,3
1,2295	-2,4	-1,9
1,23	-1,4	-1,2
1,2305	0,0	-1,2
1,231	2,5	-1,7
1,2315	6,0	-2,7
1,232	10,1	-3,8
1,2325	14,2	-4,6
1,233	16,9	-4,6
1,2335	17,1	-3,7
1,234	14,4	-2,3
1,2345	9,5	-1,1
1,235	4,4	-0,3
1,2355	0,6	0,0
1,236	-0,9	-0,4
1,2365	0,0	-1,5
1,237	2,6	-3,3
1,2375	5,7	-5,2
1,238	8,6	-6,8
1,2385	10,5	-7,4
1,239	11,4	-7,0
1,2395	11,8	-5,6
1,24	12,3	-3,8
1,2405	13,8	-2,3
1,241	16,3	-1,8
1,2415	19,7	-2,3
1,242	23,0	-3,6
1,2425	25,8	-5,3
1,243	27,7	-6,8
1,2435	28,5	-8,0
1,244	28,6	-8,4
1,2445	28,6	-8,1
1,245	29,3	-7,0
1,2455	31,0	-5,6
1,246	32,9	-4,4
1,2465	34,0	-3,9
1,247	33,5	-4,2
1,2475	31,6	-5,1
1,248	28,7	-6,3
1,2485	25,3	-7,5
1,249	21,9	-8,3
1,2495	18,8	-8,3
1,25	16,3	-7,4
1,2505	15,1	-6,0
1,251	15,3	-4,6
1,2515	16,8	-3,4
1,252	19,0	-2,9
1,2525	21,0	-3,3
1,253	22,3	-4,8
1,2535	23,0	-7,0
1,254	23,6	-9,5
1,2545	24,6	-11,8
1,255	26,1	-13,2
1,2555	27,7	-13,6
1,256	28,4	-12,8
1,2565	27,7	-11,1
1,257	25,5	-8,8
1,2575	22,8	-6,6
1,258	20,5	-5,4
1,2585	19,8	-5,5
1,259	21,1	-6,5
1,2595	23,2	-7,9
1,26	25,0	-9,2
1,2605	25,6	-10,2
1,261	25,0	-10,6
1,2615	23,6	-10,2
1,262	21,0	-9,2
1,2625	17,1	-7,8
1,263	11,6	-6,5
1,2635	5,1	-5,8
1,264	-1,7	-6,1
1,2645	-7,7	-7,4
1,265	-12,4	-9,3
1,2655	-15,3	-10,9
1,266	-16,1	-11,5
1,2665	-15,0	-10,8
1,267	-12,1	-8,9
1,2675	-8,4	-6,2
1,268	-5,5	-3,1
1,2685	-5,5	-0,4
1,269	-9,2	1,2
1,2695	-15,9	1,3
1,27	-22,9	0,3
1,2705	-27,0	-1,5
1,271	-25,9	-3,6
1,2715	-19,9	-5,6
1,272	-11,3	-7,3
1,2725	-2,7	-8,2
1,273	3,8	-8,4
1,2735	8,0	-7,7
1,274	10,9	-6,9
1,2745	13,6	-6,8
1,275	16,8	-7,5
1,2755	19,9	-9,1
1,276	21,9	-10,8
1,2765	21,7	-12,3
1,277	19,0	-13,2
1,2775	14,0	-13,2
1,278	7,6	-12,0
1,2785	0,9	-9,7
1,279	-5,0	-6,8
1,2795	-9,6	-4,0
1,28	-12,7	-2,1
1,2805	-14,2	-1,3
1,281	-14,1	-1,4
1,2815	-12,6	-2,1
1,282	-9,9	-3,4
1,2825	-6,6	-4,6
1,283	-3,1	-5,3
1,2835	0,4	-5,1
1,284	3,8	-4,2
1,2845	6,4	-3,0
1,285	7,7	-2,1
1,2855	6,5	-1,9
1,286	2,8	-2,8
1,2865	-2,9	-4,7
1,287	-9,6	-7,1
1,2875	-15,8	-9,3
1,288	-20,7	-10,8
1,2885	-23,0	-11,2
1,289	-21,3	-10,4
1,2895	-14,8	-9,0
1,29	-3,6	-7,3
1,2905	9,9	-5,9
1,291	22,6	-5,6
1,2915	32,0	-6,4
1,292	36,8	-7,9
1,2925	37,0	-9,5
1,293	32,9	-10,7
1,2935	26,2	-11,2
1,294	19,0	-10,9
1,2945	13,1	-9,9
1,295	9,3	-8,3
1,2955	7,7	-6,4
1,296	7,4	-4,5
1,2965	8,1	-3,0
1,297	9,3	-2,3
1,2975	10,8	-2,6
1,298	12,0	-3,8
1,2985	12,4	-5,3
1,299	11,9	-6,6
1,2995	10,5	-7,2
1,3	8,4	-7,0
1,3005	6,1	-6,3
1,301	4,4	-5,6
1,3015	4,2	-5,0
1,302	5,2	-4,7
1,3025	7,4	-5,0
1,303	10,8	-6,0
1,3035	15,2	-7,7
1,304	19,7	-9,9
1,3045	23,0	-12,0
1,305	24,3	-13,4
1,3055	23,6	-14,0
1,306	21,3	-13,7
1,3065	18,1	-12,7
1,307	14,8	-11,3
1,3075	11,4	-10,3
1,308	7,8	-10,0
1,3085	3,9	-10,7
1,309	-0,2	-11,8
1,3095	-4,5	-12,8
1,31	-8,5	-13,6
1,3105	-11,5	-13,9
1,311	-12,9	-13,6
1,3115	-12,2	-12,3
1,312	-10,2	-10,2
1,3125	-8,3	-7,3
1,313	-7,8	-4,6
1,3135	-9,2	-2,8
1,314	-11,5	-2,3
1,3145	-13,1	-2,7
1,315	-12,6	-3,9
1,3155	-10,3	-5,4
1,316	-7,1	-6,7
1,3165	-4,3	-7,1
1,317	-2,4	-6,5
1,3175	-1,1	-5,3
1,318	0,1	-4,3
1,3185	1,6	-3,9
1,319	3,5	-4,4
1,3195	5,7	-5,8
1,32	8,2	-8,1
1,3205	11,0	-10,9
1,321	13,8	-13,7
1,3215	16,3	-15,8
1,322	17,8	-16,9
1,3225	18,5	-16,7
1,323	19,1	-15,6
1,3235	21,1	-13,8
1,324	25,9	-12,3
1,3245	34,3	-11,5
1,325	45,1	-11,9
1,3255	55,3	-12,8
1,326	61,6	-13,9
1,3265	61,8	-14,8
1,327	56,4	-15,6
1,3275	47,0	-15,8
1,328	35,7	-14,9
1,3285	24,3	-13,0
1,329	13,5	-10,5
1,3295	3,4	-8,2
1,33	-5,4	-6,7
1,3305	-12,6	-6,5
1,331	-17,8	-7,3
1,3315	-21,3	-9,1
1,332	-23,3	-11,3
1,3325	-23,8	-13,2
1,333	-22,8	-14,0
1,3335	-20,4	-13,5
1,334	-17,0	-12,3
1,3345	-13,1	-10,8
1,335	-9,2	-9,7
1,3355	-5,3	-9,1
1,336	-1,5	-9,2
1,3365	2,0	-10,1
1,337	5,0	-11,6
1,3375	7,0	-13,6
1,338	8,5	-15,5
1,3385	9,8	-17,0
1,339	11,4	-17,8
1,3395	12,8	-17,9
1,34	13,4	-17,4
1,3405	13,3	-16,5
1,341	13,0	-15,9
1,3415	13,3	-16,1
1,342	14,7	-17,0
1,3425	16,9	-18,2
1,343	19,3	-19,3
1,3435	21,0	-20,1
1,344	21,3	-20,4
1,3445	20,4	-20,1
1,345	18,8	-19,2
1,3455	17,4	-17,6
1,346	16,3	-15,8
1,3465	15,1	-14,1
1,347	14,8	-13,0
1,3475	18,9	-12,6
1,348	29,4	-12,9
1,3485	45,0	-13,9
1,349	60,1	-15,3
1,3495	69,0	-16,2
1,35	68,9	-16,0
1,3505	60,7	-14,8
1,351	47,4	-13,4
1,3515	32,8	-12,3
1,352	18,8	-11,8
1,3525	6,2	-12,1
1,353	-5,3	-13,7
1,3535	-15,8	-16,4
1,354	-25,1	-19,8
1,3545	-32,5	-22,9
1,355	-37,3	-25,2
1,3555	-38,6	-26,0
1,356	-36,6	-25,5
1,3565	-31,3	-24,1
1,357	-23,7	-22,1
1,3575	-15,7	-20,5
1,358	-9,9	-19,9
1,3585	-8,0	-20,6
1,359	-9,4	-22,3
1,3595	-11,9	-24,2
1,36	-13,3	-25,8
1,3605	-13,5	-26,8
1,361	-13,1	-26,5
1,3615	-13,1	-25,0
1,362	-13,6	-22,5
1,3625	-14,7	-19,7
1,363	-15,9	-17,3
1,3635	-16,7	-15,5
1,364	-16,8	-14,7
1,3645	-15,9	-15,0
1,365	-14,1	-16,3
1,3655	-11,8	-18,1
1,366	-9,1	-19,3
1,3665	-6,7	-19,1
1,367	-5,4	-17,3
1,3675	-5,2	-14,6
1,368	-4,5	-11,8
1,3685	-1,9	-9,8
1,369	3,3	-9,1
1,3695	10,2	-9,8
1,37	17,3	-11,9
1,3705	23,7	-15,0
1,371	28,4	-18,3
1,3715	31,1	-20,9
1,372	31,7	-22,5
1,3725	30,4	-23,1
1,373	28,8	-22,8
1,3735	28,6	-22,0
1,374	30,4	-21,4
1,3745	32,9	-21,6
1,375	33,9	-22,6
1,3755	32,4	-24,1
1,376	28,8	-25,6
1,3765	23,8	-26,8
1,377	18,1	-27,2
1,3775	12,1	-26,5
1,378	6,6	-24,8
1,3785	2,0	-22,3
1,379	-1,9	-19,8
1,3795	-5,2	-17,8
1,38	-7,4	-16,8
1,3805	-8,2	-16,8
1,381	-6,9	-17,5
1,3815	-3,8	-18,9
1,382	0,4	-20,8
1,3825	4,4	-22,5
1,383	6,8	-23,5
1,3835	6,8	-23,6
1,384	4,6	-23,0
1,3845	0,7	-22,2
1,385	-3,8	-21,6
1,3855	-7,7	-21,4
1,386	-10,3	-21,9
1,3865	-11,6	-23,0
1,387	-11,5	-24,3
1,3875	-10,6	-25,6
1,388	-10,1	-26,2
1,3885	-10,9	-25,9
1,389	-13,5	-24,8
1,3895	-16,6	-23,2
1,39	-17,7	-21,4
1,3905	-15,1	-19,8
1,391	-9,0	-19,1
1,3915	-1,2	-19,7
1,392	6,2	-21,1
1,3925	12,4	-22,9
1,393	17,6	-24,8
1,3935	22,4	-26,7
1,394	27,3	-27,9
1,3945	31,7	-28,1
1,395	34,4	-27,0
1,3955	34,4	-25,0
1,396	31,9	-22,8
1,3965	28,7	-21,4
1,397	26,9	-21,2
1,3975	26,8	-22,2
1,398	27,7	-24,1
1,3985	28,0	-26,4
1,399	26,7	-28,4
1,3995	23,7	-29,6
1,4	19,3	-29,6
1,4005	14,3	-28,8
1,401	9,2	-28,0
1,4015	4,4	-27,6
1,402	0,3	-27,7
1,4025	-3,4	-28,2
1,403	-6,3	-29,2
1,4035	-7,8	-31,1
1,404	-7,7	-33,9
1,4045	-6,3	-36,8
1,405	-4,8	-39,0
1,4055	-3,8	-40,2
1,406	-3,0	-40,2
1,4065	-2,0	-39,1
1,407	-0,2	-37,3
1,4075	3,6	-35,8
1,408	10,1	-35,2
1,4085	18,8	-35,7
1,409	27,8	-36,8
1,4095	34,5	-38,1
1,41	37,6	-39,3
1,4105	37,2	-40,2
1,411	34,5	-40,4
1,4115	30,8	-39,9
1,412	27,1	-38,5
1,4125	24,0	-36,4
1,413	21,6	-34,5
1,4135	19,8	-33,4
1,414	18,3	-33,6
1,4145	16,6	-34,7
1,415	14,8	-36,5
1,4155	12,5	-38,1
1,416	10,1	-38,6
1,4165	7,8	-37,7
1,417	6,2	-35,6
1,4175	5,3	-33,3
1,418	5,2	-31,3
1,4185	5,4	-30,1
1,419	5,5	-29,8
1,4195	4,8	-30,3
1,42	3,4	-31,8
1,4205	1,6	-34,1
1,421	-0,5	-36,6
1,4215	-2,2	-38,6
1,422	-2,9	-39,4
1,4225	-2,4	-39,2
1,423	-1,1	-38,2
1,4235	0,0	-36,8
1,424	0,6	-35,7
1,4245	0,8	-35,4
1,425	1,3	-36,3
1,4255	2,0	-37,9
1,426	2,9	-39,7
1,4265	3,8	-41,3
1,427	4,2	-42,2
1,4275	2,9	-42,0
1,428	-0,4	-40,8
1,4285	-5,0	-38,4
1,429	-9,4	-35,5
1,4295	-12,7	-32,5
1,43	-15,1	-30,3
1,4305	-16,8	-29,0
1,431	-17,3	-28,8
1,4315	-15,8	-29,8
1,432	-11,3	-31,3
1,4325	-4,3	-32,6
1,433	3,6	-32,8
1,4335	10,3	-31,8
1,434	14,8	-30,0
1,4345	16,9	-28,0
1,435	17,7	-26,2
1,4355	17,8	-24,7
1,436	17,2	-23,6
1,4365	15,6	-23,2
1,437	13,0	-23,2
1,4375	9,7	-23,6
1,438	6,3	-24,0
1,4385	3,5	-24,0
1,439	1,1	-23,3
1,4395	-1,1	-21,7
1,44	-3,7	-19,4
1,4405	-7,3	-17,0
1,441	-12,4	-15,5
1,4415	-18,3	-15,5
1,442	-23,3	-16,8
1,4425	-25,1	-18,7
1,443	-22,7	-20,4
1,4435	-16,6	-21,4
1,444	-8,8	-21,4
1,4445	-1,5	-20,6
1,445	3,6	-18,8
1,4455	5,7	-16,6
1,446	5,2	-14,5
1,4465	3,2	-13,2
1,447	0,7	-13,2
1,4475	-0,8	-14,1
1,448	-1,2	-15,8
1,4485	-1,2	-17,5
1,449	-2,3	-18,7
1,4495	-4,7	-18,7
1,45	-7,8	-17,6
1,4505	-10,2	-15,9
1,451	-11,0	-14,1
1,4515	-10,5	-12,6
1,452	-9,3	-11,6
1,4525	-7,6	-11,2
1,453	-5,6	-11,5
1,4535	-3,1	-12,4
1,454	0,5	-13,7
1,4545	5,4	-15,2
1,455	11,7	-16,4
1,4555	18,8	-16,8
1,456	25,4	-16,3
1,4565	30,7	-14,8
1,457	34,0	-12,8
1,4575	35,1	-11,0
1,458	34,4	-10,3
1,4585	33,0	-11,0
1,459	32,1	-13,0
1,4595	32,4	-15,5
1,46	34,1	-17,8
1,4605	36,2	-19,3
1,461	37,8	-19,3
1,4615	38,2	-18,0
1,462	37,6	-15,6
1,4625	36,8	-12,8
1,463	35,5	-10,4
1,4635	33,5	-8,9
1,464	30,5	-8,5
1,4645	26,6	-9,0
1,465	22,2	-10,2
1,4655	17,5	-11,5
1,466	13,6	-12,2
1,4665	12,1	-11,6
1,467	13,8	-9,8
1,4675	17,4	-7,4
1,468	20,6	-5,3
1,4685	21,5	-3,8
1,469	19,6	-3,2
1,4695	17,0	-3,5
1,47	17,9	-4,9
1,4705	25,7	-7,2
1,471	39,4	-9,8
1,4715	54,1	-12,2
1,472	64,1	-13,7
1,4725	66,3	-14,1
1,473	61,0	-13,6
1,4735	50,6	-12,8
1,474	38,5	-12,1
1,4745	27,2	-12,1
1,475	17,7	-12,8
1,4755	10,0	-13,8
1,476	4,0	-14,3
1,4765	-0,9	-14,0
1,477	-5,1	-12,9
1,4775	-9,3	-11,3
1,478	-13,3	-9,6
1,4785	-16,4	-8,0
1,479	-17,3	-6,8
1,4795	-15,4	-6,1
1,48	-10,8	-6,0
1,4805	-4,6	-6,5
1,481	1,7	-7,4
1,4815	6,3	-8,6
1,482	9,1	-9,8
1,4825	10,6	-10,8
1,483	11,5	-10,8
1,4835	11,9	-9,7
1,484	12,3	-7,9
1,4845	12,8	-6,2
1,485	14,1	-5,0
1,4855	15,9	-4,8
1,486	18,0	-5,8
1,4865	19,6	-7,6
1,487	20,4	-10,1
1,4875	20,4	-12,7
1,488	20,4	-14,8
1,4885	20,5	-15,9
1,489	20,7	-16,0
1,4895	20,2	-15,3
1,49	18,4	-13,9
1,4905	15,6	-12,3
1,491	12,3	-11,0
1,4915	9,8	-10,4
1,492	8,6	-10,7
1,4925	8,2	-11,8
1,493	7,7	-13,3
1,4935	6,9	-14,7
1,494	6,2	-15,5
1,4945	6,3	-15,4
1,495	6,8	-14,2
1,4955	7,3	-12,1
1,496	7,4	-9,7
1,4965	7,3	-7,8
1,497	6,8	-6,9
1,4975	5,7	-7,1
1,498	4,0	-8,1
1,4985	1,9	-9,9
1,499	0,0	-11,8
1,4995	-1,4	-13,1
1,5	-2,0	-13,3
1,5005	-1,8	-12,5
1,501	-1,5	-11,1
1,5015	-1,8	-9,7
1,502	-3,4	-8,8
1,5025	-6,8	-8,6
1,503	-12,0	-9,4
1,5035	-18,2	-11,0
1,504	-24,3	-12,8
1,5045	-29,0	-14,2
1,505	-31,2	-14,6
1,5055	-31,1	-13,9
1,506	-29,4	-12,5
1,5065	-27,5	-10,7
1,507	-25,9	-8,9
1,5075	-24,3	-7,9
1,508	-22,1	-8,3
1,5085	-19,3	-9,6
1,509	-15,6	-11,5
1,5095	-10,9	-13,0
1,51	-5,2	-13,6
1,5105	1,6	-13,0
1,511	8,6	-11,0
1,5115	14,8	-7,8
1,512	19,1	-4,1
1,5125	21,0	-0,8
1,513	21,2	1,5
1,5135	20,7	2,3
1,514	20,0	1,7
1,5145	19,2	-0,1
1,515	18,2	-2,9
1,5155	17,0	-5,9
1,516	15,5	-8,3
1,5165	13,0	-9,2
1,517	9,6	-8,3
1,5175	5,7	-6,0
1,518	2,1	-3,3
1,5185	-0,8	-0,8
1,519	-3,3	0,8
1,5195	-5,7	1,4
1,52	-8,0	0,8
1,5205	-10,2	-0,6
1,521	-12,1	-2,3
1,5215	-13,8	-3,7
1,522	-14,9	-4,5
1,5225	-15,1	-4,8
1,523	-14,4	-4,7
1,5235	-12,9	-4,3
1,524	-10,6	-4,1
1,5245	-7,8	-4,3
1,525	-5,0	-5,1
1,5255	-2,8	-6,5
1,526	-1,9	-8,2
1,5265	-2,3	-10,2
1,527	-3,6	-11,8
1,5275	-5,3	-12,5
1,528	-6,3	-12,1
1,5285	-6,3	-10,5
1,529	-5,1	-8,3
1,5295	-2,8	-6,1
1,53	0,5	-4,5
1,5305	4,7	-4,1
1,531	9,3	-4,7
1,5315	13,8	-5,9
1,532	17,7	-7,4
1,5325	20,9	-8,6
1,533	23,4	-9,2
1,5335	24,9	-9,1
1,534	25,3	-8,6
1,5345	24,3	-7,9
1,535	22,1	-7,4
1,5355	18,7	-7,3
1,536	14,4	-7,8
1,5365	9,3	-8,9
1,537	2,9	-10,4
1,5375	-5,6	-11,9
1,538	-16,0	-13,1
1,5385	-27,0	-13,7
1,539	-36,3	-13,4
1,5395	-42,1	-12,4
1,54	-42,9	-10,8
1,5405	-38,3	-9,3
1,541	-29,1	-8,5
1,5415	-18,4	-8,6
1,542	-9,9	-9,3
1,5425	-5,4	-10,2
1,543	-4,5	-10,9
1,5435	-5,8	-11,1
1,544	-7,6	-10,8
1,5445	-9,3	-9,7
1,545	-10,6	-7,8
1,5455	-10,9	-5,2
1,546	-10,1	-2,7
1,5465	-7,7	-1,0
1,547	-3,8	-0,7
1,5475	1,2	-1,5
1,548	7,3	-3,2
1,5485	14,0	-5,2
1,549	20,8	-6,9
1,5495	26,7	-7,4
1,55	30,4	-6,4
1,5505	31,6	-4,3
1,551	31,2	-1,9
1,5515	30,7	0,3
1,552	31,4	2,0
1,5525	33,5	2,9
1,553	36,5	2,5
1,5535	39,4	0,8
1,554	41,1	-1,8
1,5545	41,2	-4,6
1,555	39,6	-7,0
1,5555	36,5	-8,6
1,556	32,4	-9,3
1,5565	27,9	-9,1
1,557	23,3	-8,4
1,5575	18,6	-7,9
1,558	14,0	-8,2
1,5585	10,1	-9,4
1,559	7,4	-11,3
1,5595	6,8	-13,0
1,56	9,3	-14,1
1,5605	15,4	-14,6
1,561	24,4	-14,8
1,5615	34,6	-14,6
1,562	43,9	-13,9
1,5625	50,6	-12,7
1,563	53,9	-11,6
1,5635	53,8	-11,1
1,564	50,9	-11,4
1,5645	46,1	-12,5
1,565	40,2	-14,2
1,5655	33,9	-15,8
1,566	27,6	-17,0
1,5665	21,6	-17,2
1,567	16,2	-16,6
1,5675	11,8	-15,5
1,568	8,6	-14,3
1,5685	6,6	-13,4
1,569	5,0	-13,1
1,5695	3,1	-13,7
1,57	-0,1	-14,8
1,5705	-4,8	-16,0
1,571	-10,7	-16,5
1,5715	-17,0	-16,2
1,572	-22,1	-15,0
1,5725	-25,1	-13,4
1,573	-25,6	-12,1
1,5735	-24,4	-11,5
1,574	-22,1	-11,6
1,5745	-19,3	-12,6
1,575	-15,9	-14,2
1,5755	-11,8	-15,9
1,576	-7,1	-17,5
1,5765	-1,8	-18,4
1,577	3,1	-18,7
1,5775	7,0	-18,1
1,578	9,6	-16,8
1,5785	11,5	-14,7
1,579	13,3	-12,3
1,5795	14,9	-10,2
1,58	15,6	-8,8
1,5805	14,9	-8,4
1,581	13,0	-9,3
1,5815	10,8	-11,0
1,582	8,9	-13,2
1,5825	7,5	-14,8
1,583	6,5	-15,4
1,5835	5,9	-15,0
1,584	5,8	-14,0
1,5845	6,1	-12,7
1,585	6,9	-11,5
1,5855	7,8	-10,4
1,586	8,2	-9,7
1,5865	8,0	-9,8
1,587	7,0	-10,7
1,5875	5,5	-12,1
1,588	3,8	-13,7
1,5885	2,1	-14,9
1,589	0,5	-15,3
1,5895	-0,8	-14,9
1,59	-1,5	-13,8
1,5905	-1,8	-12,7
1,591	-1,8	-12,2
1,5915	-1,6	-12,9
1,592	-1,4	-14,5
1,5925	-1,2	-16,6
1,593	-1,2	-18,5
1,5935	-1,3	-19,6
1,594	-1,5	-19,6
1,5945	-1,6	-18,6
1,595	-1,4	-16,7
1,5955	-0,8	-14,1
1,596	0,1	-11,1
1,5965	0,8	-8,3
1,597	1,6	-6,3
1,5975	2,7	-5,3
1,598	4,1	-5,5
1,5985	5,5	-6,6
1,599	6,5	-8,1
1,5995	7,1	-9,0
1,6	7,2	-8,6
1,6005	6,6	-7,0
1,601	5,3	-5,0
1,6015	3,9	-3,2
1,602	3,1	-2,1
1,6025	3,6	-1,8
1,603	5,2	-2,3
1,6035	7,3	-3,5
1,604	9,2	-5,0
1,6045	10,8	-6,4
1,605	12,0	-7,1
1,6055	12,7	-6,9
1,606	13,1	-5,9
1,6065	13,4	-4,1
1,607	14,0	-2,0
1,6075	14,4	-0,2
1,608	14,2	0,6
1,6085	12,8	0,2
1,609	10,3	-0,7
1,6095	6,6	-1,5
1,61	1,9	-2,1
1,6105	-4,4	-2,4
1,611	-12,4	-2,0
1,6115	-21,9	-0,8
1,612	-32,0	1,1
1,6125	-42,0	3,4
1,613	-50,4	5,5
1,6135	-55,8	7,0
1,614	-57,6	7,7
1,6145	-56,3	7,8
1,615	-53,9	7,2
1,6155	-51,7	6,5
1,616	-47,8	6,0
1,6165	-38,7	6,2
1,617	-23,7	7,1
1,6175	-6,4	8,3
1,618	8,0	9,4
1,6185	16,8	10,2
1,619	19,7	10,6
1,6195	18,5	10,3
1,62	16,0	9,2
1,6205	14,3	7,3
1,621	13,5	5,0
1,6215	12,3	3,0
1,622	8,9	2,0
1,6225	3,4	2,2
1,623	-3,0	3,4
1,6235	-9,5	5,1
1,624	-15,4	6,8
1,6245	-20,5	7,6
1,625	-23,5	7,4
1,6255	-23,9	6,4
1,626	-21,7	5,2
1,6265	-17,4	3,9
1,627	-11,4	2,6
1,6275	-3,5	1,6
1,628	6,2	1,3
1,6285	16,6	1,8
1,629	26,3	2,9
1,6295	34,0	4,3
1,63	38,6	5,2
1,6305	40,1	5,2
1,631	39,3	4,5
1,6315	36,8	3,4
1,632	34,0	2,2
1,6325	31,6	1,2
1,633	30,1	1,0
1,6335	29,2	1,5
1,634	28,7	2,4
1,6345	28,4	3,6
1,635	28,3	4,7
1,6355	27,9	5,3
1,636	26,7	5,1
1,6365	24,6	3,8
1,637	21,8	1,8
1,6375	18,9	-0,4
1,638	16,0	-2,5
1,6385	13,2	-4,0
1,639	9,7	-4,6
1,6395	5,5	-4,1
1,64	0,6	-2,8
1,6405	-5,3	-1,2
1,641	-11,9	-0,2
1,6415	-18,5	-0,2
1,642	-24,0	-1,1
1,6425	-27,1	-2,3
1,643	-27,4	-3,2
1,6435	-25,1	-3,7
1,644	-20,8	-3,8
1,6445	-15,6	-3,4
1,645	-10,1	-2,3
1,6455	-4,1	-0,6
1,646	3,8	1,7
1,6465	14,5	3,9
1,647	26,8	5,5
1,6475	38,3	5,9
1,648	46,3	5,2
1,6485	50,2	3,8
1,649	51,1	2,4
1,6495	50,8	2,1
1,65	50,2	2,9
1,6505	49,0	4,4
1,651	46,4	5,9
1,6515	41,7	6,8
1,652	35,0	7,1
1,6525	26,9	6,7
1,653	18,0	5,7
1,6535	8,7	4,3
1,654	0,3	2,5
1,6545	-5,4	0,7
1,655	-7,3	-0,8
1,6555	-5,6	-1,5
1,656	-2,3	-1,2
1,6565	1,1	0,0
1,657	3,5	1,8
1,6575	5,2	3,4
1,658	6,9	4,1
1,6585	9,3	3,5
1,659	12,6	1,9
1,6595	16,0	-0,1
1,66	19,0	-2,1
1,6605	21,2	-3,7
1,661	22,8	-4,5
1,6615	24,4	-4,3
1,662	26,5	-3,1
1,6625	29,1	-1,2
1,663	31,6	1,2
1,6635	34,4	3,2
1,664	37,8	4,4
1,6645	42,1	4,7
1,665	46,1	4,2
1,6655	48,4	3,3
1,666	47,9	2,8
1,6665	44,6	2,8
1,667	39,2	3,3
1,6675	32,9	3,6
1,668	26,5	3,7
1,6685	20,1	3,5
1,669	13,3	3,1
1,6695	5,7	2,5
1,67	-3,0	1,5
1,6705	-12,2	0,1
1,671	-21,3	-1,3
1,6715	-29,4	-2,4
1,672	-35,4	-2,7
1,6725	-38,5	-2,2
1,673	-38,3	-0,8
1,6735	-35,6	1,2
1,674	-31,6	3,2
1,6745	-27,9	4,4
1,675	-25,0	4,6
1,6755	-22,8	3,6
1,676	-19,8	1,8
1,6765	-14,7	-0,4
1,677	-7,3	-2,3
1,6775	0,5	-3,2
1,678	6,5	-2,9
1,6785	9,7	-1,4
1,679	10,6	0,9
1,6795	10,2	3,2
1,68	8,8	4,4
1,6805	7,2	4,1
1,681	6,4	2,5
1,6815	7,4	0,2
1,682	10,4	-2,4
1,6825	14,6	-4,4
1,683	18,9	-5,0
1,6835	22,2	-4,2
1,684	23,8	-2,5
1,6845	23,9	-0,8
1,685	23,2	0,3
1,6855	22,5	0,4
1,686	22,4	-0,4
1,6865	23,2	-2,3
1,687	25,3	-4,9
1,6875	28,4	-7,7
1,688	32,0	-10,1
1,6885	34,9	-11,5
1,689	36,8	-11,8
1,6895	37,6	-11,1
1,69	37,8	-9,5
1,6905	37,7	-7,7
1,691	37,2	-6,2
1,6915	36,1	-5,7
1,692	34,6	-6,7
1,6925	32,9	-8,9
1,693	31,2	-11,8
1,6935	29,3	-14,5
1,694	26,8	-16,3
1,6945	23,6	-16,6
1,695	19,7	-15,4
1,6955	15,1	-13,1
1,696	10,5	-10,7
1,6965	6,9	-9,0
1,697	5,2	-8,5
1,6975	5,7	-9,2
1,698	8,0	-10,9
1,6985	11,3	-12,9
1,699	14,7	-14,6
1,6995	17,5	-15,3
1,7	19,0	-15,2
1,7005	19,4	-14,6
1,701	19,1	-14,0
1,7015	18,6	-13,5
1,702	18,1	-13,0
1,7025	17,4	-12,8
1,703	16,3	-12,8
1,7035	14,5	-13,6
1,704	12,1	-14,9
1,7045	9,1	-16,5
1,705	6,2	-17,4
1,7055	4,3	-17,1
1,706	3,7	-15,8
1,7065	4,3	-14,3
1,707	4,8	-12,9
1,7075	4,2	-11,9
1,708	2,2	-11,6
1,7085	-0,4	-12,2
1,709	-3,0	-13,2
1,7095	-6,0	-14,3
1,71	-9,9	-15,1
1,7105	-14,6	-15,5
1,711	-19,3	-15,3
1,7115	-22,8	-14,4
1,712	-24,7	-12,9
1,7125	-25,0	-11,1
1,713	-24,2	-9,5
1,7135	-22,8	-8,9
1,714	-21,3	-9,3
1,7145	-19,6	-10,6
1,715	-17,3	-12,2
1,7155	-14,1	-13,4
1,716	-9,8	-13,8
1,7165	-4,7	-13,4
1,717	0,8	-12,2
1,7175	5,9	-10,9
1,718	10,9	-10,0
1,7185	16,3	-9,8
1,719	22,0	-10,2
1,7195	27,3	-11,1
1,72	30,6	-12,4
1,7205	30,8	-13,8
1,721	28,5	-14,8
1,7215	25,0	-15,3
1,722	21,7	-15,1
1,7225	19,1	-14,2
1,723	17,7	-12,8
1,7235	17,8	-10,9
1,724	19,3	-9,2
1,7245	21,8	-8,3
1,725	24,2	-8,5
1,7255	26,5	-9,8
1,726	29,2	-11,6
1,7265	32,8	-13,6
1,727	36,8	-15,4
1,7275	39,8	-16,4
1,728	40,9	-16,3
1,7285	40,1	-15,2
1,729	37,3	-13,5
1,7295	33,2	-11,9
1,73	28,3	-11,0
1,7305	23,2	-11,0
1,731	18,8	-11,7
1,7315	15,1	-13,0
1,732	11,5	-14,6
1,7325	6,7	-16,0
1,733	0,3	-16,3
1,7335	-6,3	-15,4
1,734	-11,2	-13,7
1,7345	-13,2	-11,9
1,735	-12,1	-10,3
1,7355	-8,9	-9,4
1,736	-5,1	-9,3
1,7365	-1,6	-9,9
1,737	1,4	-11,0
1,7375	4,7	-12,6
1,738	8,3	-14,5
1,7385	11,5	-16,1
1,739	13,5	-17,0
1,7395	14,2	-16,9
1,74	13,7	-15,9
1,7405	12,6	-14,6
1,741	11,4	-13,9
1,7415	10,7	-14,4
1,742	10,8	-15,7
1,7425	11,6	-17,1
1,743	12,7	-17,8
1,7435	13,5	-17,8
1,744	13,6	-17,1
1,7445	12,9	-16,1
1,745	11,6	-14,8
1,7455	10,3	-13,3
1,746	9,7	-11,6
1,7465	10,1	-10,0
1,747	11,1	-9,0
1,7475	11,8	-8,9
1,748	11,6	-9,7
1,7485	10,9	-11,1
1,749	10,7	-12,6
1,7495	11,2	-13,2
1,75	12,4	-12,6
1,7505	14,0	-10,8
1,751	15,8	-8,3
1,7515	17,6	-6,1
1,752	19,1	-4,8
1,7525	20,1	-4,8
1,753	20,6	-5,8
1,7535	20,6	-7,8
1,754	20,4	-10,1
1,7545	20,4	-12,0
1,755	20,7	-13,0
1,7555	21,3	-13,0
1,756	22,1	-11,9
1,7565	22,9	-9,9
1,757	23,8	-7,3
1,7575	24,5	-5,1
1,758	24,9	-3,8
1,7585	24,9	-3,8
1,759	24,1	-4,6
1,7595	22,7	-5,9
1,76	20,8	-7,4
1,7605	19,4	-8,5
1,761	18,8	-8,9
1,7615	18,6	-8,0
1,762	17,5	-6,0
1,7625	14,8	-3,6
1,763	10,9	-1,3
1,7635	6,7	0,0
1,764	2,8	0,2
1,7645	-0,6	-0,8
1,765	-3,9	-2,9
1,7655	-7,3	-5,3
1,766	-10,1	-7,1
1,7665	-12,1	-7,7
1,767	-13,4	-6,9
1,7675	-14,7	-5,4
1,768	-15,8	-4,0
1,7685	-15,8	-3,2
1,769	-13,8	-3,3
1,7695	-9,4	-4,6
1,77	-3,9	-6,5
1,7705	1,7	-8,7
1,771	6,3	-10,8
1,7715	9,8	-12,5
1,772	12,3	-13,3
1,7725	14,4	-13,3
1,773	16,3	-12,7
1,7735	18,1	-11,7
1,774	19,4	-10,8
1,7745	20,0	-10,7
1,775	19,9	-11,5
1,7755	19,2	-13,1
1,776	18,3	-15,0
1,7765	17,8	-16,8
1,777	17,6	-18,3
1,7775	17,3	-19,1
1,778	16,8	-18,8
1,7785	15,9	-17,6
1,779	15,1	-15,8
1,7795	14,5	-14,2
1,78	14,1	-12,9
1,7805	13,6	-12,5
1,781	12,8	-12,9
1,7815	11,5	-14,0
1,782	9,8	-15,4
1,7825	8,0	-16,3
1,783	6,4	-16,0
1,7835	5,1	-14,6
1,784	3,8	-12,7
1,7845	2,3	-11,0
1,785	0,9	-9,8
1,7855	0,3	-9,4
1,786	0,8	-9,7
1,7865	2,5	-10,8
1,787	4,4	-12,7
1,7875	6,5	-15,0
1,788	10,0	-16,8
1,7885	16,4	-17,6
1,789	25,7	-17,4
1,7895	35,8	-16,3
1,79	44,1	-14,7
1,7905	49,0	-12,9
1,791	49,8	-11,7
1,7915	46,8	-11,5
1,792	41,2	-12,5
1,7925	34,4	-14,6
1,793	26,8	-17,0
1,7935	18,7	-19,2
1,794	10,0	-20,5
1,7945	1,2	-20,7
1,795	-7,1	-19,8
1,7955	-14,7	-18,2
1,796	-20,9	-16,3
1,7965	-22,5	-14,8
1,797	-16,7	-14,2
1,7975	-3,5	-14,5
1,798	12,2	-15,4
1,7985	24,2	-16,8
1,799	28,3	-17,8
1,7995	23,9	-18,1
1,8	13,6	-17,3
1,8005	1,4	-15,7
1,801	-9,1	-13,8
1,8015	-16,9	-11,8
1,802	-22,4	-10,3
1,8025	-26,8	-9,4
1,803	-30,6	-9,4
1,8035	-33,2	-10,3
1,804	-33,7	-11,7
1,8045	-31,7	-13,4
1,805	-28,1	-14,8
1,8055	-24,1	-15,2
1,806	-20,0	-14,4
1,8065	-15,8	-12,6
1,807	-11,5	-10,2
1,8075	-7,6	-8,0
1,808	-4,2	-6,9
1,8085	-0,3	-7,0
1,809	4,8	-8,0
1,8095	11,2	-9,6
1,81	18,5	-11,5
1,8105	26,9	-13,3
1,811	36,3	-14,7
1,8115	45,0	-15,2
1,812	51,3	-15,0
1,8125	53,6	-14,3
1,813	51,4	-13,5
1,8135	45,1	-13,0
1,814	35,8	-13,2
1,8145	25,7	-14,1
1,815	16,8	-15,5
1,8155	9,9	-16,8
1,816	4,5	-17,5
1,8165	-0,5	-16,9
1,817	-5,4	-15,5
1,8175	-10,1	-13,9
1,818	-13,5	-12,6
1,8185	-15,1	-11,7
1,819	-15,0	-11,0
1,8195	-13,6	-10,9
1,82	-11,6	-11,5
1,8205	-9,3	-13,1
1,821	-7,0	-14,9
1,8215	-4,4	-16,3
1,822	-1,1	-16,5
1,8225	3,6	-15,5
1,823	9,6	-13,6
1,8235	16,8	-11,5
1,824	24,9	-10,2
1,8245	32,8	-10,3
1,825	39,4	-12,0
1,8255	43,9	-14,5
1,826	46,6	-16,8
1,8265	48,3	-18,6
1,827	49,5	-19,5
1,8275	50,3	-19,4
1,828	50,2	-18,7
1,8285	48,8	-17,5
1,829	46,4	-16,2
1,8295	43,8	-14,8
1,83	41,5	-13,8
1,8305	39,5	-13,6
1,831	37,5	-14,2
1,8315	35,4	-15,2
1,832	33,3	-16,3
1,8325	31,2	-17,2
1,833	29,3	-17,4
1,8335	27,7	-16,8
1,834	26,5	-15,3
1,8345	25,7	-13,4
1,835	25,1	-11,7
1,8355	24,8	-10,5
1,836	24,3	-10,1
1,8365	23,6	-10,6
1,837	22,8	-11,7
1,8375	21,8	-13,0
1,838	20,9	-14,3
1,8385	20,0	-15,0
1,839	18,7	-15,1
1,8395	16,6	-14,5
1,84	13,8	-13,2
1,8405	9,9	-11,5
1,841	5,1	-10,2
1,8415	-0,1	-9,9
1,842	-4,1	-10,8
1,8425	-5,6	-12,5
1,843	-4,1	-14,5
1,8435	-0,2	-16,2
1,844	4,7	-17,0
1,8445	8,9	-16,9
1,845	11,7	-15,8
1,8455	12,7	-14,0
1,846	12,3	-12,0
1,8465	11,0	-10,3
1,847	9,7	-9,4
1,8475	8,7	-9,4
1,848	8,6	-10,3
1,8485	9,5	-11,9
1,849	11,3	-13,8
1,8495	13,3	-15,2
1,85	14,0	-15,5
1,8505	12,4	-14,7
1,851	8,5	-13,2
1,8515	3,0	-11,6
1,852	-2,8	-10,3
1,8525	-7,5	-9,8
1,853	-10,0	-10,6
1,8535	-9,5	-12,5
1,854	-6,4	-15,1
1,8545	-2,0	-17,7
1,855	1,8	-19,7
1,8555	3,8	-20,7
1,856	4,0	-20,8
1,8565	4,4	-19,8
1,857	6,4	-18,5
1,8575	10,3	-17,4
1,858	15,0	-17,4
1,8585	19,6	-18,4
1,859	23,7	-20,0
1,8595	27,6	-21,5
1,86	32,1	-22,8
1,8605	37,5	-23,6
1,861	43,6	-23,4
1,8615	49,3	-22,0
1,862	52,9	-19,9
1,8625	53,5	-17,8
1,863	50,8	-16,3
1,8635	45,6	-15,6
1,864	39,2	-15,7
1,8645	32,5	-16,2
1,865	26,5	-16,9
1,8655	21,1	-17,8
1,866	16,3	-18,6
1,8665	11,9	-19,0
1,867	8,4	-18,8
1,8675	6,5	-18,5
1,868	5,7	-18,3
1,8685	5,3	-18,2
1,869	4,7	-18,7
1,8695	4,3	-19,8
1,87	4,8	-21,8
1,8705	6,6	-24,3
1,871	9,1	-27,3
1,8715	11,4	-29,8
1,872	12,9	-31,2
1,8725	13,5	-31,3
1,873	13,8	-30,3
1,8735	14,4	-28,7
1,874	15,3	-27,2
1,8745	15,7	-26,3
1,875	15,0	-26,5
1,8755	13,6	-27,6
1,876	12,2	-29,0
1,8765	11,3	-30,4
1,877	11,0	-31,3
1,8775	11,6	-31,4
1,878	13,7	-30,5
1,8785	17,4	-28,5
1,879	21,9	-26,2
1,8795	25,9	-24,1
1,88	28,2	-22,7
1,8805	28,9	-22,1
1,881	28,8	-22,3
1,8815	28,8	-22,9
1,882	28,8	-23,9
1,8825	28,1	-24,8
1,883	26,7	-24,9
1,8835	24,3	-24,3
1,884	21,0	-23,0
1,8845	16,8	-21,5
1,885	12,6	-20,3
1,8855	8,9	-19,4
1,886	6,4	-19,3
1,8865	5,1	-20,1
1,887	4,5	-22,0
1,8875	4,2	-24,5
1,888	3,5	-26,9
1,8885	2,4	-28,5
1,889	1,3	-29,1
1,8895	0,4	-28,8
1,89	-0,5	-27,8
1,8905	-2,2	-26,6
1,891	-4,6	-25,7
1,8915	-7,3	-25,5
1,892	-9,5	-26,1
1,8925	-10,1	-26,9
1,893	-8,9	-27,7
1,8935	-6,1	-28,2
1,894	-3,2	-28,1
1,8945	-1,2	-27,1
1,895	-0,5	-25,4
1,8955	-0,8	-23,2
1,896	-1,4	-21,2
1,8965	-2,1	-19,9
1,897	-2,2	-19,6
1,8975	-1,6	-20,2
1,898	-0,3	-21,5
1,8985	0,9	-23,0
1,899	1,1	-24,2
1,8995	-0,5	-24,8
1,9	-4,2	-24,5
1,9005	-9,6	-23,6
1,901	-15,9	-22,8
1,9015	-21,7	-22,2
1,902	-25,4	-22,3
1,9025	-26,6	-23,1
1,903	-25,8	-24,7
1,9035	-24,1	-27,1
1,904	-22,0	-30,0
1,9045	-19,5	-32,8
1,905	-17,1	-35,1
1,9055	-15,2	-36,2
1,906	-14,6	-36,1
1,9065	-14,8	-34,9
1,907	-14,4	-33,0
1,9075	-10,8	-31,3
1,908	-3,1	-30,6
1,9085	7,3	-31,3
1,909	17,8	-33,1
1,9095	26,7	-35,2
1,91	33,8	-37,1
1,9105	39,6	-37,9
1,911	44,0	-37,4
1,9115	46,4	-35,5
1,912	46,4	-32,4
1,9125	44,0	-28,7
1,913	40,2	-25,2
1,9135	35,7	-22,7
1,914	30,8	-21,7
1,9145	25,3	-22,2
1,915	19,1	-23,8
1,9155	12,3	-25,9
1,916	5,6	-27,5
1,9165	0,4	-27,9
1,917	-2,6	-27,1
1,9175	-3,3	-25,7
1,918	-2,4	-24,1
1,9185	0,0	-22,8
1,919	3,5	-22,1
1,9195	7,7	-22,3
1,92	11,8	-23,3
1,9205	15,2	-24,7
1,921	17,4	-26,2
1,9215	18,4	-27,6
1,922	18,7	-28,6
1,9225	19,2	-28,7
1,923	22,7	-27,6
1,9235	33,3	-25,6
1,924	53,4	-23,4
1,9245	80,3	-22,0
1,925	106,4	-22,0
1,9255	124,1	-23,3
1,926	129,6	-25,2
1,9265	122,9	-27,1
1,927	107,5	-28,4
1,9275	87,6	-28,7
1,928	66,3	-27,8
1,9285	45,4	-26,0
1,929	25,7	-23,7
1,9295	7,6	-21,8
1,93	-8,6	-20,7
1,9305	-22,7	-20,7
1,931	-34,0	-21,7
1,9315	-42,0	-23,2
1,932	-46,5	-24,6
1,9325	-47,5	-25,4
1,933	-45,7	-25,1
1,9335	-42,5	-23,8
1,934	-39,5	-21,9
1,9345	-37,1	-20,1
1,935	-34,5	-19,1
1,9355	-30,2	-19,2
1,936	-23,7	-20,1
1,9365	-16,4	-21,3
1,937	-10,6	-22,6
1,9375	-7,4	-23,6
1,938	-6,4	-24,3
1,9385	-6,3	-24,3
1,939	-5,6	-24,0
1,9395	-3,6	-23,3
1,94	-0,5	-22,3
1,9405	2,8	-21,1
1,941	5,3	-20,1
1,9415	6,4	-19,8
1,942	6,2	-20,5
1,9425	4,7	-21,7
1,943	2,6	-22,8
1,9435	1,0	-23,5
1,944	1,3	-23,7
1,9445	4,6	-22,9
1,945	10,3	-21,3
1,9455	17,1	-19,0
1,946	23,5	-16,9
1,9465	28,9	-15,6
1,947	32,6	-15,4
1,9475	34,1	-16,3
1,948	33,1	-17,7
1,9485	30,3	-19,1
1,949	26,9	-20,1
1,9495	23,7	-20,3
1,95	20,5	-19,7
1,9505	16,8	-18,5
1,951	12,0	-17,3
1,9515	6,1	-16,3
1,952	-0,7	-15,8
1,9525	-7,5	-15,9
1,953	-13,5	-16,7
1,9535	-18,0	-18,1
1,954	-20,5	-19,6
1,9545	-21,8	-20,9
1,955	-22,4	-21,6
1,9555	-22,8	-21,4
1,956	-22,8	-20,6
1,9565	-22,3	-19,2
1,957	-20,9	-17,5
1,9575	-18,5	-16,1
1,958	-14,8	-15,7
1,9585	-9,6	-16,3
1,959	-3,1	-17,6
1,9595	3,8	-19,0
1,96	9,7	-20,1
1,9605	13,8	-20,6
1,961	16,3	-20,4
1,9615	17,6	-19,3
1,962	18,3	-17,6
1,9625	18,8	-15,3
1,963	18,5	-13,1
1,9635	16,9	-11,5
1,964	13,7	-10,8
1,9645	9,3	-11,0
1,965	5,1	-11,8
1,9655	1,9	-13,0
1,966	0,8	-13,8
1,9665	1,8	-13,9
1,967	4,6	-13,4
1,9675	8,9	-12,4
1,968	13,6	-11,6
1,9685	17,4	-10,8
1,969	19,1	-10,2
1,9695	18,3	-10,0
1,97	15,8	-10,5
1,9705	13,0	-11,8
1,971	11,3	-13,5
1,9715	11,3	-15,0
1,972	13,3	-15,7
1,9725	16,4	-15,3
1,973	20,3	-14,1
1,9735	24,2	-12,6
1,974	27,5	-11,4
1,9745	29,6	-11,3
1,975	30,2	-12,2
1,9755	29,3	-13,8
1,976	27,4	-15,3
1,9765	25,1	-16,1
1,977	22,9	-16,1
1,9775	21,0	-15,1
1,978	19,8	-13,3
1,9785	20,0	-11,1
1,979	21,7	-8,6
1,9795	24,6	-6,6
1,98	27,6	-5,8
1,9805	29,4	-6,4
1,981	29,7	-8,0
1,9815	28,5	-10,0
1,982	26,7	-11,9
1,9825	24,9	-13,2
1,983	23,4	-13,6
1,9835	22,2	-13,0
1,984	20,6	-11,7
1,9845	18,4	-10,1
1,985	15,1	-8,7
1,9855	10,8	-7,6
1,986	6,4	-6,9
1,9865	3,0	-6,8
1,987	0,8	-7,1
1,9875	-0,7	-8,0
1,988	-2,0	-9,2
1,9885	-3,2	-10,1
1,989	-4,1	-10,1
1,9895	-4,3	-8,9
1,99	-3,7	-6,5
1,9905	-2,0	-3,9
1,991	0,6	-2,1
1,9915	3,7	-1,8
1,992	6,6	-3,1
1,9925	9,0	-5,2
1,993	11,0	-7,3
1,9935	12,9	-9,0
1,994	15,2	-9,7
1,9945	17,9	-9,3
1,995	20,4	-8,0
1,9955	21,9	-6,1
1,996	22,4	-4,0
1,9965	22,2	-2,1
1,997	22,2	-0,8
1,9975	23,0	-0,4
1,998	25,7	-1,1
1,9985	30,8	-2,4
1,999	37,5	-3,8
1,9995	43,8	-4,4
2	48,1	-4,1
2,0005	49,4	-2,9
2,001	47,8	-1,1
2,0015	43,8	0,8
2,002	38,3	2,2
2,0025	31,8	2,5
2,003	24,7	1,9
2,0035	17,3	0,5
2,004	9,7	-1,3
2,0045	1,9	-3,1
2,005	-5,9	-4,6
2,0055	-13,5	-5,3
2,006	-20,5	-5,0
2,0065	-26,3	-4,0
2,007	-30,2	-2,5
2,0075	-31,7	-1,0
2,008	-31,2	-0,1
2,0085	-29,5	0,2
2,009	-27,5	0,1
2,0095	-25,6	0,3
2,01	-23,9	0,9
2,0105	-22,0	1,8
2,011	-19,5	3,5
2,0115	-16,8	5,9
2,012	-14,6	9,1
2,0125	-13,5	12,6
2,013	-13,1	15,9
2,0135	-12,7	18,6
2,014	-11,5	20,3
2,0145	-9,6	21,0
2,015	-6,8	20,6
2,0155	-3,2	19,5
2,016	0,7	18,6
2,0165	4,4	18,6
2,017	7,3	19,4
2,0175	9,0	20,8
2,018	9,3	22,3
2,0185	8,4	23,5
2,019	6,9	24,1
2,0195	5,9	23,6
2,02	5,8	21,7
2,0205	6,7	18,6
2,021	8,8	15,1
2,0215	12,5	12,3
2,022	17,8	10,7
2,0225	23,7	10,7
2,023	28,5	11,9
2,0235	31,6	13,8
2,024	33,1	15,7
2,0245	33,8	16,4
2,025	34,0	15,8
2,0255	33,7	14,0
2,026	32,6	12,0
2,0265	30,7	10,0
2,027	28,3	8,5
2,0275	26,0	7,7
2,028	24,0	8,0
2,0285	22,2	9,6
2,029	20,4	12,0
2,0295	18,0	14,5
2,03	14,9	16,3
2,0305	11,5	16,9
2,031	8,6	16,4
2,0315	7,0	14,9
2,032	6,8	12,9
2,0325	7,8	10,9
2,033	9,4	9,7
2,0335	10,8	9,5
2,034	11,2	10,2
2,0345	10,4	10,8
2,035	9,2	11,0
2,0355	7,8	10,5
2,036	6,0	9,3
2,0365	3,4	7,5
2,037	0,3	5,1
2,0375	-2,3	2,1
2,038	-3,8	-1,1
2,0385	-4,4	-3,9
2,039	-4,2	-5,9
2,0395	-3,3	-6,9
2,04	-1,7	-7,0
2,0405	0,8	-6,7
2,041	4,4	-6,4
2,0415	8,6	-6,4
2,042	12,6	-6,7
2,0425	17,1	-7,2
2,043	25,5	-7,8
2,0435	39,6	-8,9
2,044	57,3	-9,7
2,0445	73,2	-9,7
2,045	82,7	-8,4
2,0455	84,1	-5,9
2,046	77,9	-2,6
2,0465	66,4	0,6
2,047	52,0	3,0
2,0475	36,2	4,2
2,048	19,1	4,2
2,0485	0,7	3,3
2,049	-18,7	2,1
2,0495	-37,2	1,7
2,05	-52,3	2,5
2,0505	-61,4	4,3
2,051	-63,2	6,4
2,0515	-58,5	8,3
2,052	-50,3	9,3
2,0525	-42,0	8,8
2,053	-36,7	7,1
2,0535	-35,2	4,4
2,054	-36,3	1,3
2,0545	-37,3	-1,5
2,055	-35,2	-3,7
2,0555	-28,1	-5,0
2,056	-17,0	-5,4
2,0565	-4,2	-5,2
2,057	7,3	-4,4
2,0575	15,9	-3,7
2,058	21,3	-3,7
2,0585	24,6	-4,8
2,059	27,2	-6,6
2,0595	29,6	-8,7
2,06	31,8	-10,6
2,0605	33,9	-11,8
2,061	36,3	-11,9
2,0615	38,8	-10,9
2,062	40,9	-9,2
2,0625	42,0	-7,1
2,063	41,6	-5,1
2,0635	40,0	-4,0
2,064	38,3	-4,2
2,0645	37,6	-5,7
2,065	38,5	-8,1
2,0655	40,4	-11,0
2,066	42,3	-13,6
2,0665	43,8	-15,3
2,067	44,7	-15,9
2,0675	44,6	-15,4
2,068	43,3	-14,3
2,0685	40,5	-12,8
2,069	37,1	-11,6
2,0695	33,6	-11,3
2,07	30,4	-12,2
2,0705	27,5	-13,9
2,071	24,8	-15,9
2,0715	22,2	-17,3
2,072	19,5	-17,9
2,0725	16,6	-17,6
2,073	13,9	-16,5
2,0735	11,8	-15,0
2,074	10,2	-13,3
2,0745	8,5	-12,2
2,075	6,1	-11,9
2,0755	2,8	-12,6
2,076	-1,1	-14,1
2,0765	-4,9	-15,6
2,077	-7,9	-16,6
2,0775	-9,4	-16,7
2,078	-9,1	-16,1
2,0785	-7,3	-14,9
2,079	-5,3	-13,3
2,0795	-4,7	-11,9
2,08	-5,8	-11,3
2,0805	-7,9	-11,5
2,081	-10,1	-12,6
2,0815	-11,6	-14,3
2,082	-12,2	-16,1
2,0825	-11,3	-17,8
2,083	-8,8	-18,8
2,0835	-4,8	-18,8
2,084	0,0	-18,1
2,0845	4,8	-17,2
2,085	8,8	-16,6
2,0855	11,8	-16,5
2,086	13,5	-17,0
2,0865	14,3	-18,1
2,087	14,5	-19,6
2,0875	14,4	-21,4
2,088	14,3	-22,8
2,0885	14,3	-23,5
2,089	15,8	-23,1
2,0895	20,2	-21,9
2,09	27,9	-20,2
2,0905	37,3	-18,4
2,091	46,1	-17,3
2,0915	52,3	-17,4
2,092	55,7	-18,6
2,0925	56,4	-20,5
2,093	54,9	-22,3
2,0935	51,5	-23,8
2,094	46,7	-24,7
2,0945	40,7	-25,0
2,095	33,9	-24,7
2,0955	26,8	-23,6
2,096	19,8	-22,2
2,0965	13,7	-21,2
2,097	8,7	-20,9
2,0975	5,0	-21,5
2,098	2,7	-22,7
2,0985	1,5	-24,3
2,099	0,8	-26,1
2,0995	0,0	-27,7
2,1	-1,1	-28,5
2,1005	-2,0	-28,6
2,101	-1,7	-28,2
2,1015	-0,1	-27,6
2,102	1,9	-27,3
2,1025	2,6	-27,5
2,103	0,9	-28,3
2,1035	-2,8	-29,6
2,104	-8,0	-31,2
2,1045	-13,6	-32,8
2,105	-18,7	-34,0
2,1055	-22,1	-34,5
2,106	-23,0	-34,0
2,1065	-21,2	-32,6
2,107	-17,5	-30,5
2,1075	-12,8	-28,1
2,108	-8,2	-26,2
2,1085	-3,9	-25,0
2,109	0,4	-24,6
2,1095	4,9	-24,5
2,11	8,5	-24,4
2,1105	9,7	-24,1
2,111	8,2	-23,3
2,1115	5,4	-22,3
2,112	3,2	-21,1
2,1125	2,7	-20,0
2,113	3,8	-19,4
2,1135	5,8	-19,3
2,114	7,9	-19,6
2,1145	10,2	-20,3
2,115	12,2	-21,5
2,1155	13,7	-22,8
2,116	14,3	-23,2
2,1165	13,7	-22,3
2,117	12,1	-20,4
2,1175	9,9	-18,6
2,118	7,4	-17,7
2,1185	4,9	-17,6
2,119	2,4	-18,1
2,1195	-0,2	-19,0
2,12	-2,4	-20,4
2,1205	-3,7	-22,6
2,121	-4,1	-25,4
2,1215	-4,3	-28,1
2,122	-4,5	-30,3
2,1225	-4,6	-31,6
2,123	-4,6	-31,8
2,1235	-4,8	-31,2
2,124	-5,7	-30,2
2,1245	-6,9	-29,6
2,125	-7,7	-29,9
2,1255	-7,0	-30,9
2,126	-4,7	-32,1
2,1265	-1,2	-32,9
2,127	3,0	-33,2
2,1275	7,4	-32,5
2,128	11,5	-30,9
2,1285	15,6	-28,4
2,129	19,7	-25,6
2,1295	23,3	-23,1
2,13	25,8	-21,3
2,1305	26,9	-20,1
2,131	27,0	-19,8
2,1315	26,7	-20,3
2,132	26,5	-21,0
2,1325	27,0	-21,4
2,133	29,1	-20,8
2,1335	33,0	-18,9
2,134	37,9	-16,2
2,1345	41,6	-13,5
2,135	41,8	-11,3
2,1355	37,9	-9,9
2,136	30,9	-9,5
2,1365	22,7	-10,1
2,137	14,9	-11,5
2,1375	8,5	-13,5
2,138	4,2	-15,5
2,1385	1,9	-16,6
2,139	1,1	-16,5
2,1395	0,9	-15,2
2,14	0,9	-12,9
2,1405	0,2	-10,3
2,141	-2,4	-8,3
2,1415	-6,9	-7,8
2,142	-12,2	-8,8
2,1425	-16,1	-10,5
2,143	-17,0	-12,1
2,1435	-14,7	-13,0
2,144	-9,7	-13,1
2,1445	-3,0	-12,3
2,145	4,2	-11,0
2,1455	10,7	-9,5
2,146	15,7	-8,0
2,1465	19,0	-6,9
2,147	21,0	-6,3
2,1475	22,1	-6,4
2,148	22,5	-7,3
2,1485	22,5	-8,5
2,149	21,6	-9,6
2,1495	18,9	-10,2
2,15	14,1	-10,0
2,1505	7,7	-9,2
2,151	1,8	-8,5
2,1515	-1,8	-8,1
2,152	-2,3	-8,2
2,1525	-0,1	-8,7
2,153	3,2	-9,6
2,1535	6,1	-10,8
2,154	7,5	-12,2
2,1545	7,4	-13,3
2,155	6,3	-13,8
2,1555	5,4	-13,3
2,156	5,6	-11,8
2,1565	7,3	-9,7
2,157	10,6	-7,3
2,1575	14,8	-5,7
2,158	19,2	-5,1
2,1585	23,3	-5,6
2,159	26,8	-6,4
2,1595	30,3	-7,0
2,16	34,1	-7,3
2,1605	37,4	-7,1
2,161	39,7	-6,5
2,1615	40,6	-5,5
2,162	41,4	-4,2
2,1625	43,5	-3,0
2,163	47,8	-2,3
2,1635	53,2	-2,1
2,164	57,6	-2,7
2,1645	59,6	-4,0
2,165	58,8	-5,9
2,1655	55,7	-8,2
2,166	50,8	-9,9
2,1665	44,6	-10,6
2,167	37,6	-10,0
2,1675	30,2	-8,7
2,168	23,0	-7,2
2,1685	16,5	-5,9
2,169	11,0	-5,5
2,1695	6,8	-6,1
2,17	3,7	-7,5
2,1705	1,4	-9,3
2,171	0,1	-11,3
2,1715	-0,3	-12,8
2,172	-0,1	-13,5
2,1725	0,6	-12,8
2,173	1,4	-11,3
2,1735	2,0	-9,5
2,174	1,8	-8,3
2,1745	0,9	-8,2
2,175	0,0	-9,0
2,1755	0,2	-10,5
2,176	2,0	-12,1
2,1765	5,4	-13,6
2,177	9,6	-14,9
2,1775	13,6	-15,8
2,178	16,5	-16,4
2,1785	17,6	-16,3
2,179	17,2	-15,8
2,1795	15,8	-14,8
2,18	13,8	-13,8
2,1805	12,0	-13,4
2,181	10,8	-14,0
2,1815	10,4	-15,8
2,182	11,0	-18,3
2,1825	12,2	-20,5
2,183	13,3	-21,7
2,1835	13,9	-21,6
2,184	14,2	-20,7
2,1845	14,4	-19,5
2,185	14,7	-18,4
2,1855	14,6	-17,6
2,186	14,3	-17,0
2,1865	14,1	-17,0
2,187	14,7	-17,9
2,1875	16,6	-19,8
2,188	19,8	-22,3
2,1885	24,0	-24,3
2,189	28,2	-25,3
2,1895	31,3	-25,0
2,19	32,8	-23,6
2,1905	32,4	-21,9
2,191	30,3	-20,8
2,1915	27,2	-21,1
2,192	23,6	-22,7
2,1925	19,7	-25,2
2,193	15,8	-27,9
2,1935	13,3	-30,2
2,194	13,1	-31,8
2,1945	15,6	-32,0
2,195	19,7	-31,0
2,1955	23,5	-28,9
2,196	25,7	-26,4
2,1965	25,5	-24,2
2,197	23,1	-22,8
2,1975	18,7	-22,1
2,198	12,8	-22,4
2,1985	5,9	-23,4
2,199	-1,2	-24,5
2,1995	-7,8	-25,0
2,2	-13,5	-24,2
2,2005	-18,2	-22,8
2,201	-21,9	-21,3
2,2015	-24,5	-20,3
2,202	-25,8	-19,6
2,2025	-25,2	-19,4
2,203	-22,5	-19,8
2,2035	-18,3	-20,8
2,204	-13,7	-22,0
2,2045	-9,8	-22,7
2,205	-7,2	-22,5
2,2055	-6,1	-21,0
2,206	-6,3	-18,3
2,2065	-7,0	-14,6
2,207	-7,0	-10,7
2,2075	-5,1	-7,5
2,208	-0,6	-5,8
2,2085	6,1	-5,7
2,209	13,6	-6,6
2,2095	20,6	-7,7
2,21	26,3	-8,7
2,2105	29,9	-9,2
2,211	31,4	-8,9
2,2115	30,9	-7,6
2,212	29,5	-5,3
2,2125	28,6	-2,4
2,213	28,8	0,6
2,2135	29,5	3,0
2,214	28,6	4,3
2,2145	25,0	4,2
2,215	19,3	2,8
2,2155	12,9	1,2
2,216	7,0	-0,2
2,2165	2,1	-0,6
2,217	-2,0	-0,3
2,2175	-5,2	0,4
2,218	-6,9	1,1
2,2185	-7,1	1,6
2,219	-5,9	1,8
2,2195	-4,1	1,4
2,22	-2,5	0,4
2,2205	-1,4	-1,4
2,221	-0,7	-3,9
2,2215	0,1	-6,6
2,222	1,4	-8,6
2,2225	3,2	-9,6
2,223	5,5	-9,6
2,2235	8,4	-9,0
2,224	11,7	-8,2
2,2245	14,9	-8,0
2,225	17,7	-8,6
2,2255	19,7	-10,0
2,226	20,4	-11,9
2,2265	19,5	-13,8
2,227	17,5	-15,5
2,2275	15,6	-16,4
2,228	14,4	-16,2
2,2285	13,4	-14,5
2,229	11,7	-11,5
2,2295	9,4	-7,7
2,23	7,1	-4,1
2,2305	5,4	-1,9
2,231	4,5	-1,5
2,2315	3,8	-2,8
2,232	2,9	-5,1
2,2325	1,5	-7,1
2,233	-0,4	-8,3
2,2335	-2,5	-8,2
2,234	-4,4	-7,4
2,2345	-5,7	-6,7
2,235	-5,8	-6,3
2,2355	-4,5	-6,4
2,236	-1,5	-7,2
2,2365	2,6	-8,5
2,237	6,9	-10,3
2,2375	11,1	-12,4
2,238	14,7	-14,4
2,2385	17,4	-15,8
2,239	19,1	-16,5
2,2395	19,8	-16,3
2,24	20,4	-15,4
2,2405	21,9	-14,1
2,241	25,0	-13,2
2,2415	29,8	-13,3
2,242	35,0	-14,5
2,2425	39,2	-16,5
2,243	41,6	-18,5
2,2435	42,3	-20,2
2,244	42,0	-21,0
2,2445	40,7	-20,8
2,245	38,3	-20,0
2,2455	34,4	-18,8
2,246	29,3	-17,7
2,2465	23,5	-16,8
2,247	17,6	-16,9
2,2475	12,1	-17,8
2,248	7,5	-19,5
2,2485	4,3	-21,5
2,249	2,4	-23,4
2,2495	1,5	-24,8
2,25	1,1	-25,3
2,2505	0,9	-25,0
2,251	0,8	-24,3
2,2515	1,0	-23,6
2,252	1,4	-22,9
2,2525	2,2	-22,3
2,253	3,1	-22,2
2,2535	4,4	-22,8
2,254	6,1	-24,2
2,2545	8,6	-26,0
2,255	11,8	-27,8
2,2555	14,8	-29,0
2,256	16,5	-29,4
2,2565	15,8	-28,8
2,257	11,8	-27,3
2,2575	4,6	-25,8
2,258	-4,2	-24,9
2,2585	-11,9	-25,0
2,259	-16,5	-25,4
2,2595	-17,8	-25,5
2,26	-16,1	-25,0
2,2605	-12,8	-24,3
2,261	-8,5	-23,2
2,2615	-4,1	-21,8
2,262	0,2	-20,0
2,2625	4,3	-18,2
2,263	8,5	-16,8
2,2635	12,8	-16,2
2,264	16,7	-16,3
2,2645	19,7	-17,0
2,265	21,5	-18,1
2,2655	22,1	-19,5
2,266	21,4	-20,6
2,2665	19,6	-20,9
2,267	17,8	-20,2
2,2675	16,6	-18,9
2,268	16,0	-17,6
2,2685	15,3	-16,7
2,269	13,7	-16,6
2,2695	11,3	-17,3
2,27	8,8	-19,0
2,2705	7,6	-21,5
2,271	8,5	-24,4
2,2715	11,7	-27,0
2,272	15,9	-28,7
2,2725	19,6	-29,3
2,273	21,9	-28,9
2,2735	22,6	-27,8
2,274	22,5	-26,5
2,2745	22,2	-25,9
2,275	21,7	-26,5
2,2755	20,9	-27,9
2,276	19,7	-29,3
2,2765	18,1	-30,2
2,277	16,8	-30,4
2,2775	17,1	-29,9
2,278	19,8	-28,8
2,2785	24,3	-26,9
2,279	28,9	-23,9
2,2795	32,0	-20,0
2,28	32,7	-16,1
2,2805	30,6	-12,8
2,281	26,1	-10,7
2,2815	20,0	-9,6
2,282	13,0	-9,2
2,2825	5,7	-8,6
2,283	-2,0	-6,6
2,2835	-9,6	-2,9
2,284	-16,1	1,7
2,2845	-20,3	6,3
2,285	-21,6	10,1
2,2855	-20,7	12,8
2,286	-18,5	14,3
2,2865	-16,1	14,9
2,287	-14,5	15,0
2,2875	-14,0	14,9
2,288	-15,2	14,8
2,2885	-18,8	15,3
2,289	-25,3	16,4
2,2895	-34,2	18,4
2,29	-43,0	20,8
2,2905	-46,2	23,2
2,291	-38,6	25,0
2,2915	-19,0	25,4
2,292	7,2	24,7
2,2925	31,8	23,2
2,293	48,8	21,5
2,2935	56,3	20,3
2,294	55,9	19,9
2,2945	50,1	20,6
2,295	41,8	22,3
2,2955	32,5	24,8
2,296	23,2	27,4
2,2965	13,8	29,2
2,297	4,2	29,8
2,2975	-5,4	29,0
2,298	-14,5	27,0
2,2985	-22,3	24,3
2,299	-28,1	21,6
2,2995	-30,8	19,8
2,3	-29,9	19,4
2,3005	-25,6	20,3
2,301	-18,8	21,8
2,3015	-10,8	23,3
2,302	-3,3	24,3
2,3025	3,3	24,4
2,303	9,4	23,1
2,3035	15,0	20,2
2,304	19,1	16,3
2,3045	20,7	12,3
2,305	20,1	9,0
2,3055	18,2	6,8
2,306	16,2	5,8
2,3065	15,0	5,6
2,307	15,2	5,5
2,3075	16,9	4,9
2,308	19,6	3,3
2,3085	22,7	0,7
2,309	25,1	-2,7
2,3095	26,3	-6,0
2,31	26,1	-8,7
2,3105	25,2	-10,7
2,311	24,6	-11,7
2,3115	24,8	-11,8
2,312	25,9	-11,3
2,3125	27,7	-10,4
2,313	29,9	-9,4
2,3135	31,8	-8,9
2,314	32,4	-9,3
2,3145	31,2	-10,5
2,315	28,5	-12,7
2,3155	24,9	-15,4
2,316	20,9	-17,7
2,3165	16,6	-18,9
2,317	11,9	-19,3
2,3175	7,2	-19,2
2,318	3,0	-19,1
2,3185	-0,5	-19,3
2,319	-3,3	-19,9
2,3195	-5,4	-21,4
2,32	-6,6	-24,0
2,3205	-6,7	-27,3
2,321	-5,8	-30,8
2,3215	-4,4	-33,6
2,322	-3,2	-35,4
2,3225	-2,9	-36,1
2,323	-4,3	-36,0
2,3235	-6,8	-35,4
2,324	-9,3	-35,2
2,3245	-9,8	-35,9
2,325	-8,1	-37,8
2,3255	-4,9	-40,5
2,326	-1,7	-43,6
2,3265	0,9	-46,4
2,327	2,8	-48,6
2,3275	4,1	-49,8
2,328	5,3	-50,1
2,3285	6,5	-49,5
2,329	7,8	-48,1
2,3295	8,9	-46,5
2,33	10,0	-45,0
2,3305	11,4	-44,4
2,331	13,1	-44,8
2,3315	14,9	-46,1
2,332	15,8	-47,8
2,3325	14,8	-49,1
2,333	11,3	-49,3
2,3335	5,7	-48,3
2,334	-0,3	-46,8
2,3345	-5,2	-45,5
2,335	-8,1	-44,7
2,3355	-9,5	-44,8
2,336	-9,6	-45,9
2,3365	-8,7	-48,0
2,337	-6,9	-50,6
2,3375	-4,6	-53,3
2,338	-2,6	-55,3
2,3385	-1,3	-56,2
2,339	-0,9	-55,8
2,3395	-0,9	-54,1
2,34	-1,2	-51,8
2,3405	-1,4	-49,8
2,341	-1,6	-49,0
2,3415	-2,0	-49,9
2,342	-3,3	-51,9
2,3425	-5,7	-54,1
2,343	-8,3	-55,7
2,3435	-9,8	-56,4
2,344	-9,3	-56,1
2,3445	-6,3	-54,8
2,345	-1,2	-52,8
2,3455	5,0	-50,3
2,346	11,0	-48,0
2,3465	15,3	-46,4
2,347	16,9	-46,1
2,3475	16,4	-47,2
2,348	15,0	-49,4
2,3485	14,0	-51,9
2,349	13,4	-54,1
2,3495	12,8	-55,4
2,35	12,2	-55,5
2,3505	11,9	-54,7
2,351	12,1	-53,4
2,3515	12,5	-52,2
2,352	12,8	-51,3
2,3525	12,8	-51,3
2,353	12,1	-52,4
2,3535	10,3	-54,4
2,354	7,5	-56,8
2,3545	4,7	-59,0
2,355	2,6	-60,5
2,3555	1,5	-60,8
2,356	1,4	-59,7
2,3565	1,5	-57,3
2,357	0,9	-54,5
2,3575	-0,4	-52,4
2,358	-1,4	-51,7
2,3585	-0,2	-52,6
2,359	4,8	-54,4
2,3595	12,7	-56,4
2,36	20,9	-58,1
2,3605	26,8	-59,3
2,361	29,1	-59,8
2,3615	27,8	-59,4
2,362	23,8	-58,3
2,3625	18,2	-56,8
2,363	12,3	-55,2
2,3635	7,1	-53,9
2,364	3,1	-53,5
2,3645	-0,6	-54,0
2,365	-4,9	-55,5
2,3655	-9,5	-57,3
2,366	-12,5	-58,8
2,3665	-12,1	-59,5
2,367	-8,2	-59,3
2,3675	-2,6	-58,8
2,368	1,8	-58,4
2,3685	3,4	-57,9
2,369	2,3	-57,4
2,3695	-0,0	-57,1
2,37	-1,3	-57,2
2,3705	0,4	-58,1
2,371	4,8	-59,1
2,3715	9,4	-59,4
2,372	10,7	-58,7
2,3725	7,0	-56,9
2,373	-0,6	-54,4
2,3735	-9,4	-51,6
2,374	-17,2	-49,3
2,3745	-22,8	-48,3
2,375	-25,7	-49,0
2,3755	-25,8	-50,9
2,376	-24,0	-53,2
2,3765	-21,6	-54,9
2,377	-19,5	-56,1
2,3775	-17,8	-56,8
2,378	-15,6	-56,6
2,3785	-12,3	-55,3
2,379	-8,2	-53,0
2,3795	-3,8	-50,4
2,38	-0,1	-48,3
2,3805	2,2	-47,5
2,381	2,7	-48,2
2,3815	2,3	-50,1
2,382	2,7	-52,5
2,3825	5,1	-54,2
2,383	9,2	-54,3
2,3835	13,4	-53,0
2,384	16,2	-51,2
2,3845	16,7	-49,5
2,385	15,6	-48,5
2,3855	14,2	-48,1
2,386	13,8	-48,4
2,3865	14,6	-49,3
2,387	15,9	-50,8
2,3875	17,1	-52,2
2,388	18,3	-52,9
2,3885	19,7	-52,7
2,389	21,1	-51,5
2,3895	22,2	-49,6
2,39	22,5	-47,1
2,3905	22,0	-44,8
2,391	21,1	-43,3
2,3915	20,1	-43,5
2,392	19,2	-45,1
2,3925	18,3	-47,3
2,393	17,0	-49,5
2,3935	15,3	-50,9
2,394	13,3	-51,2
2,3945	11,0	-50,3
2,395	8,8	-48,3
2,3955	7,1	-45,6
2,396	6,8	-42,6
2,3965	8,0	-39,8
2,397	10,7	-37,8
2,3975	14,4	-36,9
2,398	18,4	-36,8
2,3985	21,9	-37,5
2,399	24,0	-38,4
2,3995	24,4	-38,8
2,4	25,1	-38,4
2,4005	30,2	-37,1
2,401	41,8	-35,5
2,4015	57,5	-34,4
2,402	71,2	-33,8
2,4025	77,5	-33,7
2,403	74,6	-33,8
2,4035	63,7	-34,2
2,404	47,6	-35,1
2,4045	29,5	-36,0
2,405	11,9	-36,6
2,4055	-4,2	-36,4
2,406	-18,7	-35,4
2,4065	-32,3	-33,9
2,407	-44,6	-32,1
2,4075	-54,6	-30,6
2,408	-61,3	-29,9
2,4085	-64,4	-30,5
2,409	-64,8	-32,1
2,4095	-62,8	-33,9
2,41	-58,3	-35,1
2,4105	-52,0	-35,1
2,411	-45,3	-33,6
2,4115	-39,5	-30,9
2,412	-34,4	-27,6
2,4125	-28,6	-24,5
2,413	-21,0	-22,2
2,4135	-11,8	-20,9
2,414	-2,0	-20,3
2,4145	6,9	-20,2
2,415	14,3	-20,7
2,4155	19,7	-21,5
2,416	23,5	-22,2
2,4165	25,9	-22,0
2,417	27,5	-20,9
2,4175	28,4	-19,3
2,418	28,8	-17,7
2,4185	28,8	-16,3
2,419	28,0	-15,6
2,4195	25,7	-15,9
2,42	21,5	-17,3
2,4205	16,3	-19,4
2,421	11,5	-21,7
2,4215	8,8	-23,3
2,422	8,7	-24,0
2,4225	10,2	-23,6
2,423	12,1	-22,2
2,4235	13,6	-20,1
2,424	14,2	-17,8
2,4245	14,0	-16,1
2,425	13,4	-15,7
2,4255	12,8	-16,4
2,426	12,7	-17,6
2,4265	13,3	-18,6
2,427	14,9	-18,9
2,4275	17,3	-18,2
2,428	19,9	-16,5
2,4285	22,1	-13,9
2,429	23,0	-11,0
2,4295	22,4	-8,3
2,43	20,5	-6,3
2,4305	18,5	-5,2
2,431	18,0	-5,1
2,4315	19,6	-6,1
2,432	22,5	-7,8
2,4325	25,0	-9,6
2,433	25,6	-10,8
2,4335	23,9	-10,8
2,434	20,3	-10,0
2,4345	15,6	-9,0
2,435	10,9	-8,1
2,4355	7,1	-7,7
2,436	4,2	-8,3
2,4365	2,6	-9,9
2,437	2,6	-12,4
2,4375	4,7	-15,1
2,438	8,6	-17,2
2,4385	12,5	-18,2
2,439	14,4	-18,3
2,4395	13,2	-17,7
2,44	9,5	-16,8
2,4405	4,6	-15,8
2,441	0,0	-15,1
2,4415	-3,7	-14,8
2,442	-6,8	-14,7
2,4425	-9,7	-14,8
2,443	-12,5	-14,8
2,4435	-14,7	-14,5
2,444	-15,8	-13,8
2,4445	-15,3	-12,3
2,445	-12,4	-10,2
2,4455	-7,3	-7,7
2,446	-1,3	-5,6
2,4465	4,3	-4,3
2,447	8,4	-4,2
2,4475	10,6	-5,0
2,448	11,0	-6,3
2,4485	9,8	-7,9
2,449	8,5	-9,2
2,4495	8,5	-9,6
2,45	10,4	-8,8
2,4505	13,5	-7,2
2,451	16,8	-5,3
2,4515	19,6	-3,7
2,452	22,0	-2,7
2,4525	24,2	-2,2
2,453	26,4	-2,2
2,4535	29,3	-2,7
2,454	33,0	-3,5
2,4545	37,2	-4,7
2,455	40,7	-5,8
2,4555	42,2	-6,4
2,456	40,8	-6,5
2,4565	37,2	-6,2
2,457	32,3	-5,5
2,4575	27,1	-5,1
2,458	22,0	-5,7
2,4585	17,0	-7,6
2,459	11,9	-10,3
2,4595	7,0	-13,2
2,46	2,3	-15,4
2,4605	-2,3	-16,5
2,461	-6,8	-16,4
2,4615	-10,6	-15,1
2,462	-13,2	-13,1
2,4625	-14,3	-11,0
2,463	-14,4	-9,5
2,4635	-13,8	-8,7
2,464	-12,3	-8,6
2,4645	-9,8	-9,3
2,465	-6,4	-10,8
2,4655	-2,6	-12,4
2,466	1,4	-13,5
2,4665	5,1	-13,4
2,467	8,5	-12,3
2,4675	11,7	-10,8
2,468	14,7	-9,2
2,4685	17,5	-7,9
2,469	20,0	-7,0
2,4695	22,4	-7,0
2,47	24,6	-7,9
2,4705	26,4	-9,9
2,471	27,6	-12,4
2,4715	28,3	-14,5
2,472	28,5	-15,8
2,4725	28,1	-16,1
2,473	26,3	-15,6
2,4735	22,3	-14,3
2,474	16,1	-12,9
2,4745	8,2	-12,0
2,475	-0,2	-12,4
2,4755	-7,9	-14,0
2,476	-14,7	-16,3
2,4765	-20,4	-18,3
2,477	-25,7	-19,5
2,4775	-31,1	-19,7
2,478	-36,4	-18,8
2,4785	-40,2	-17,1
2,479	-40,9	-14,7
2,4795	-38,2	-12,1
2,48	-33,1	-9,8
2,4805	-27,8	-8,4
2,481	-23,9	-8,3
2,4815	-22,3	-9,7
2,482	-22,6	-12,0
2,4825	-23,4	-14,2
2,483	-23,4	-15,2
2,4835	-21,8	-14,5
2,484	-19,0	-13,1
2,4845	-15,5	-11,7
2,485	-11,7	-11,2
2,4855	-7,3	-11,9
2,486	-2,2	-14,1
2,4865	3,6	-17,5
2,487	9,4	-21,5
2,4875	15,3	-25,0
2,488	21,0	-27,3
2,4885	26,0	-28,0
2,489	29,6	-27,6
2,4895	31,9	-26,4
2,49	33,7	-24,9
2,4905	35,4	-23,5
2,491	36,5	-22,8
2,4915	36,5	-23,2
2,492	35,2	-24,6
2,4925	33,2	-26,6
2,493	31,1	-28,6
2,4935	29,1	-30,4
2,494	27,0	-31,4
2,4945	24,3	-31,3
2,495	20,7	-30,2
2,4955	16,8	-28,4
2,496	13,3	-26,5
2,4965	10,3	-25,2
2,497	7,4	-24,8
2,4975	4,2	-25,4
2,498	0,9	-26,8
2,4985	-1,6	-28,9
2,499	-3,0	-31,2
2,4995	-2,9	-33,0
2,5	-2,0	-33,9
2,5005	-0,6	-34,0
2,501	1,2	-33,7
2,5015	3,2	-32,9
2,502	5,7	-31,9
2,5025	8,2	-31,4
2,503	10,8	-31,6
2,5035	13,5	-32,3
2,504	16,3	-33,0
2,5045	19,2	-33,3
2,505	21,4	-32,8
2,5055	22,8	-31,6
2,506	23,2	-29,8
2,5065	22,9	-27,6
2,507	22,4	-25,4
2,5075	22,2	-23,5
2,508	22,9	-22,3
2,5085	25,3	-22,2
2,509	28,9	-22,6
2,5095	33,3	-23,2
2,51	38,3	-23,7
2,5105	43,9	-23,8
2,511	49,8	-23,3
2,5115	54,6	-21,9
2,512	57,0	-19,8
2,5125	56,5	-17,2
2,513	53,2	-14,7
2,5135	47,9	-12,8
2,514	41,6	-11,9
2,5145	35,3	-12,2
2,515	29,6	-13,3
2,5155	24,4	-14,9
2,516	19,4	-16,4
2,5165	14,3	-17,3
2,517	8,7	-17,4
2,5175	2,3	-17,1
2,518	-4,4	-16,7
2,5185	-10,7	-16,6
2,519	-15,6	-17,2
2,5195	-18,4	-18,8
2,52	-19,2	-21,1
2,5205	-18,2	-23,7
2,521	-16,1	-26,1
2,5215	-13,6	-27,8
2,522	-10,5	-28,5
2,5225	-6,7	-28,1
2,523	-2,5	-26,7
2,5235	1,3	-24,8
2,524	4,3	-22,8
2,5245	6,3	-21,7
2,525	8,0	-21,9
2,5255	9,7	-23,1
2,526	11,6	-24,8
2,5265	13,3	-26,4
2,527	14,8	-27,6
2,5275	16,1	-27,9
2,528	17,5	-27,0
2,5285	19,0	-25,1
2,529	20,1	-22,8
2,5295	20,0	-20,8
2,53	18,8	-19,7
2,5305	17,1	-19,3
2,531	15,9	-19,8
2,5315	15,6	-21,3
2,532	15,9	-23,5
2,5325	16,4	-25,6
2,533	17,1	-26,9
2,5335	18,6	-27,1
2,534	21,4	-26,4
2,5345	24,9	-25,5
2,535	28,3	-24,8
2,5355	30,8	-24,4
2,536	32,3	-25,0
2,5365	33,0	-26,8
2,537	32,9	-29,6
2,5375	32,2	-32,8
2,538	30,6	-35,4
2,5385	28,0	-36,8
2,539	24,7	-37,2
2,5395	20,9	-36,9
2,54	17,1	-36,6
2,5405	13,3	-36,6
2,541	9,7	-37,5
2,5415	6,5	-39,4
2,542	4,0	-42,0
2,5425	2,0	-44,8
2,543	0,1	-47,1
2,5435	-2,2	-48,6
2,544	-4,6	-49,3
2,5445	-6,9	-49,1
2,545	-8,4	-47,7
2,5455	-8,9	-45,3
2,546	-8,3	-42,4
2,5465	-6,8	-39,5
2,547	-5,0	-37,5
2,5475	-3,2	-36,8
2,548	-1,8	-37,3
2,5485	-0,8	-38,8
2,549	-0,2	-40,6
2,5495	0,3	-41,6
2,55	2,0	-41,3
2,5505	6,5	-39,9
2,551	14,7	-38,3
2,5515	25,7	-36,9
2,552	37,1	-36,0
2,5525	46,3	-35,6
2,553	51,7	-35,9
2,5535	53,0	-37,4
2,554	50,4	-39,8
2,5545	45,0	-42,4
2,555	37,5	-44,6
2,5555	28,9	-45,7
2,556	19,8	-45,9
2,5565	10,8	-45,4
2,557	2,0	-44,3
2,5575	-6,7	-43,0
2,558	-15,1	-42,0
2,5585	-22,7	-42,0
2,559	-28,5	-43,0
2,5595	-32,0	-44,9
2,56	-33,4	-47,0
2,5605	-33,4	-48,6
2,561	-32,5	-49,3
2,5615	-30,9	-48,8
2,562	-28,7	-47,3
2,5625	-25,6	-45,1
2,563	-21,7	-42,8
2,5635	-17,3	-41,3
2,564	-13,0	-40,6
2,5645	-9,0	-40,6
2,565	-4,8	-41,1
2,5655	0,1	-41,7
2,566	6,2	-42,1
2,5665	13,1	-41,8
2,567	19,7	-40,5
2,5675	25,1	-38,8
2,568	28,8	-37,0
2,5685	30,6	-35,5
2,569	30,9	-34,5
2,5695	30,5	-34,2
2,57	29,5	-34,8
2,5705	27,5	-36,0
2,571	23,4	-37,4
2,5715	16,4	-38,3
2,572	6,4	-37,9
2,5725	-5,4	-36,1
2,573	-17,4	-33,1
2,5735	-27,3	-29,6
2,574	-33,6	-26,3
2,5745	-35,8	-24,0
2,575	-34,5	-23,0
2,5755	-30,3	-22,8
2,576	-24,3	-22,8
2,5765	-17,5	-22,5
2,577	-11,4	-21,8
2,5775	-7,2	-20,2
2,578	-5,4	-17,8
2,5785	-5,7	-14,7
2,579	-7,0	-11,4
2,5795	-8,6	-8,5
2,58	-10,3	-6,6
2,5805	-12,1	-5,7
2,581	-13,1	-5,3
2,5815	-12,5	-4,9
2,582	-9,8	-4,3
2,5825	-5,9	-3,5
2,583	-1,5	-2,3
2,5835	3,3	-0,7
2,584	8,9	0,8
2,5845	15,8	2,1
2,585	23,4	3,0
2,5855	30,8	3,3
2,586	36,3	2,9
2,5865	39,2	1,7
2,587	39,5	-0,0
2,5875	38,1	-1,9
2,588	35,6	-3,3
2,5885	33,0	-4,0
2,589	30,5	-3,6
2,5895	28,0	-1,8
2,59	25,6	1,2
2,5905	23,9	4,5
2,591	23,4	7,0
2,5915	24,0	8,0
2,592	24,8	7,6
2,5925	25,2	6,2
2,593	24,8	4,4
2,5935	24,0	2,9
2,594	22,9	2,2
2,5945	21,6	2,6
2,595	20,3	4,0
2,5955	19,1	6,0
2,596	18,4	8,3
2,5965	18,3	10,0
2,597	19,0	10,9
2,5975	20,3	10,8
2,598	22,1	9,9
2,5985	23,9	8,3
2,599	25,3	6,5
2,5995	25,8	5,5
2,6	25,2	5,6
2,6005	23,3	7,0
2,601	20,7	9,0
2,6015	18,2	11,1
2,602	16,4	12,6
2,6025	15,3	13,1
2,603	14,4	12,5
2,6035	13,3	10,9
2,604	11,7	8,7
2,6045	9,5	6,2
2,605	7,3	4,1
2,6055	5,8	2,6
2,606	5,3	2,0
2,6065	5,4	2,3
2,607	5,6	3,7
2,6075	5,8	5,6
2,608	6,6	6,9
2,6085	8,5	7,2
2,609	11,4	6,3
2,6095	14,9	4,8
2,61	18,8	3,0
2,6105	22,4	2,0
2,611	25,5	2,0
2,6115	27,6	3,2
2,612	29,0	5,2
2,6125	29,7	7,7
2,613	29,5	10,0
2,6135	28,1	11,6
2,614	25,6	12,0
2,6145	22,6	11,2
2,615	19,7	9,0
2,6155	17,2	5,9
2,616	14,8	2,7
2,6165	12,2	0,2
2,617	9,3	-1,3
2,6175	6,3	-2,1
2,618	3,8	-2,6
2,6185	2,0	-3,0
2,619	1,2	-3,5
2,6195	1,6	-4,3
2,62	3,2	-5,5
2,6205	5,7	-7,0
2,621	8,4	-8,4
2,6215	10,5	-9,2
2,622	11,8	-9,0
2,6225	12,3	-8,0
2,623	12,1	-6,7
2,6235	11,3	-5,2
2,624	10,0	-3,9
2,6245	8,5	-3,3
2,625	7,3	-3,5
2,6255	6,9	-4,1
2,626	7,6	-4,9
2,6265	9,2	-5,4
2,627	10,9	-5,4
2,6275	12,2	-4,7
2,628	12,8	-3,3
2,6285	12,8	-1,3
2,629	12,4	0,8
2,6295	11,9	2,7
2,63	11,5	4,0
2,6305	11,0	4,6
2,631	10,3	4,4
2,6315	9,5	3,4
2,632	8,7	2,0
2,6325	8,1	0,8
2,633	7,4	0,6
2,6335	6,5	1,6
2,634	5,7	3,2
2,6345	4,9	4,8
2,635	4,0	5,6
2,6355	2,7	5,6
2,636	1,3	5,0
2,6365	-0,1	4,1
2,637	-1,3	2,9
2,6375	-2,5	1,6
2,638	-2,8	0,2
2,6385	-0,8	-1,0
2,639	4,4	-1,7
2,6395	11,3	-1,7
2,64	17,5	-0,9
2,6405	20,4	0,5
2,641	19,5	1,6
2,6415	15,8	2,1
2,642	11,2	1,9
2,6425	7,2	1,6
2,643	4,2	1,4
2,6435	1,2	1,5
2,644	-3,3	2,1
2,6445	-9,5	3,5
2,645	-16,6	5,6
2,6455	-22,7	8,2
2,646	-26,7	10,8
2,6465	-28,5	13,2
2,647	-28,0	14,9
2,6475	-25,3	15,8
2,648	-20,7	15,7
2,6485	-15,4	14,8
2,649	-10,8	13,4
2,6495	-7,7	12,5
2,65	-5,2	12,4
2,6505	-2,0	13,1
2,651	2,4	14,0
2,6515	7,8	15,0
2,652	13,7	15,5
2,6525	19,1	15,6
2,653	23,5	15,0
2,6535	26,3	14,2
2,654	27,3	13,4
2,6545	27,1	12,9
2,655	26,0	12,8
2,6555	24,5	13,0
2,656	22,8	13,6
2,6565	21,0	14,8
2,657	19,1	16,7
2,6575	17,0	18,9
2,658	14,8	20,8
2,6585	12,7	21,9
2,659	10,5	22,3
2,6595	8,6	22,2
2,66	7,1	22,2
2,6605	6,3	22,4
2,661	6,3	23,2
2,6615	7,3	24,9
2,662	9,5	27,3
2,6625	12,8	30,3
2,663	16,7	33,0
2,6635	20,8	34,9
2,664	24,1	35,6
2,6645	26,0	35,4
2,665	25,6	34,9
2,6655	22,7	34,6
2,666	17,9	34,6
2,6665	12,2	35,0
2,667	6,3	35,5
2,6675	0,3	35,6
2,668	-6,1	35,3
2,6685	-12,5	34,6
2,669	-18,1	33,7
2,6695	-22,0	32,4
2,67	-23,5	30,7
2,6705	-22,1	28,8
2,671	-18,3	27,1
2,6715	-12,7	26,2
2,672	-7,0	26,5
2,6725	-2,4	27,8
2,673	0,8	29,7
2,6735	3,2	31,4
2,674	5,8	32,8
2,6745	9,6	33,2
2,675	14,6	32,8
2,6755	19,9	31,8
2,676	24,2	30,8
2,6765	26,0	30,1
2,677	24,8	29,9
2,6775	21,1	30,5
2,678	16,7	32,0
2,6785	13,2	34,4
2,679	11,8	37,1
2,6795	13,1	39,7
2,68	16,9	41,7
2,6805	22,8	42,8
2,681	29,8	42,9
2,6815	37,0	42,1
2,682	43,1	40,8
2,6825	46,8	39,5
2,683	47,5	38,7
2,6835	45,4	38,5
2,684	41,3	38,8
2,6845	35,8	39,4
2,685	29,9	39,9
2,6855	23,8	40,3
2,686	17,0	40,2
2,6865	9,2	39,3
2,687	0,8	37,9
2,6875	-7,5	36,3
2,688	-14,5	35,1
2,6885	-19,3	34,6
2,689	-21,3	35,1
2,6895	-20,9	36,3
2,69	-18,9	37,8
2,6905	-15,9	39,4
2,691	-11,8	40,3
2,6915	-6,2	40,1
2,692	0,4	38,8
2,6925	6,9	37,0
2,693	12,4	35,4
2,6935	16,3	34,3
2,694	18,6	34,1
2,6945	19,6	34,6
2,695	19,2	35,9
2,6955	17,5	37,8
2,696	14,9	39,8
2,6965	11,9	41,3
2,697	8,5	41,8
2,6975	4,4	41,6
2,698	-0,2	40,8
2,6985	-4,7	39,5
2,699	-7,9	37,9
2,6995	-9,0	36,7
2,7	-8,6	36,4
2,7005	-7,5	36,7
2,701	-6,3	37,5
2,7015	-4,4	38,8
2,702	-0,8	40,3
2,7025	5,0	41,6
2,703	12,1	41,9
2,7035	19,4	41,1
2,704	25,6	39,3
2,7045	30,1	37,2
2,705	32,7	35,3
2,7055	33,5	34,1
2,706	33,1	33,8
2,7065	32,1	34,3
2,707	30,8	35,5
2,7075	29,8	36,9
2,708	29,5	37,6
2,7085	30,1	37,3
2,709	30,9	36,2
2,7095	30,9	34,4
2,71	29,3	32,4
2,7105	26,2	30,5
2,711	22,4	29,3
2,7115	19,0	29,2
2,712	16,6	30,2
2,7125	15,1	32,0
2,713	14,2	33,8
2,7135	13,7	34,7
2,714	13,8	34,4
2,7145	14,6	33,3
2,715	16,0	31,6
2,7155	17,5	29,5
2,716	18,1	27,7
2,7165	17,0	26,9
2,717	14,3	27,1
2,7175	11,1	27,9
2,718	8,3	28,8
2,7185	6,6	29,2
2,719	6,1	28,6
2,7195	6,6	26,9
2,72	7,9	24,8
2,7205	9,9	22,7
2,721	12,1	21,2
2,7215	13,9	20,4
2,722	14,8	20,7
2,7225	15,1	22,0
2,723	14,9	24,1
2,7235	14,8	26,6
2,724	14,9	28,8
2,7245	15,0	30,4
2,725	15,0	30,9
2,7255	14,8	30,5
2,726	14,6	29,6
2,7265	14,4	28,6
2,727	14,2	27,7
2,7275	13,8	27,1
2,728	13,0	27,1
2,7285	11,3	27,9
2,729	8,8	29,4
2,7295	6,1	31,1
2,73	4,7	32,3
2,7305	5,3	32,4
2,731	7,3	31,1
2,7315	9,3	28,8
2,732	10,1	26,1
2,7325	9,3	23,9
2,733	7,0	23,1
2,7335	3,7	23,4
2,734	-0,2	24,4
2,7345	-4,7	25,1
2,735	-9,4	25,3
2,7355	-14,2	24,9
2,736	-18,6	23,6
2,7365	-22,0	21,7
2,737	-23,8	19,4
2,7375	-24,0	17,2
2,738	-22,2	15,2
2,7385	-18,6	14,1
2,739	-14,0	13,8
2,7395	-9,6	14,5
2,74	-6,5	16,3
2,7405	-5,1	18,7
2,741	-4,4	20,7
2,7415	-3,0	21,5
2,742	0,4	20,7
2,7425	5,8	18,8
2,743	12,3	16,5
2,7435	18,5	14,7
2,744	23,4	13,7
2,7445	26,4	13,8
2,745	26,9	14,8
2,7455	25,3	16,2
2,746	22,3	17,6
2,7465	19,1	18,6
2,747	16,3	19,0
2,7475	14,2	18,7
2,748	12,6	17,8
2,7485	11,3	16,1
2,749	10,0	14,4
2,7495	8,2	13,4
2,75	5,7	13,5
2,7505	2,1	14,4
2,751	-2,3	15,7
2,7515	-6,8	17,0
2,752	-10,4	17,9
2,7525	-12,4	18,3
2,753	-12,8	17,6
2,7535	-12,0	15,9
2,754	-10,6	13,4
2,7545	-9,5	10,7
2,755	-9,7	8,7
2,7555	-11,7	7,8
2,756	-15,3	7,8
2,7565	-19,4	8,7
2,757	-21,9	9,8
2,7575	-21,4	10,5
2,758	-17,8	10,3
2,7585	-12,4	9,2
2,759	-6,6	7,7
2,7595	-0,6	6,3
2,76	5,8	5,3
2,7605	12,4	5,0
2,761	17,9	5,6
2,7615	20,5	7,0
2,762	18,9	8,9
2,7625	14,0	10,8
2,763	7,7	12,0
2,7635	1,6	12,2
2,764	-3,6	11,4
2,7645	-8,1	9,6
2,765	-12,4	6,9
2,7655	-16,1	3,9
2,766	-17,9	1,4
2,7665	-16,9	0,2
2,767	-13,1	0,2
2,7675	-7,6	0,6
2,768	-1,0	1,0
2,7685	6,0	1,4
2,769	12,7	1,5
2,7695	17,9	0,8
2,77	21,0	-0,8
2,7705	21,6	-3,1
2,771	20,2	-5,3
2,7715	17,9	-6,7
2,772	16,3	-7,3
2,7725	16,7	-7,6
2,773	19,2	-7,6
2,7735	23,3	-7,5
2,774	28,0	-7,2
2,7745	32,9	-7,3
2,775	37,0	-8,1
2,7755	39,5	-9,6
2,776	39,5	-11,4
2,7765	37,1	-13,1
2,777	33,4	-14,3
2,7775	29,7	-14,4
2,778	26,8	-13,4
2,7785	24,8	-11,5
2,779	23,7	-8,9
2,7795	23,4	-6,4
2,78	24,3	-4,3
2,7805	26,2	-2,9
2,781	28,3	-2,6
2,7815	29,6	-3,6
2,782	29,6	-5,7
2,7825	28,1	-7,9
2,783	25,6	-9,3
2,7835	22,9	-9,5
2,784	20,9	-8,8
2,7845	20,4	-7,9
2,785	21,2	-7,2
2,7855	22,4	-7,1
2,786	23,4	-7,7
2,7865	23,9	-9,1
2,787	24,0	-11,0
2,7875	24,0	-13,0
2,788	24,1	-14,7
2,7885	24,3	-15,5
2,789	24,8	-15,4
2,7895	25,4	-14,6
2,79	26,4	-13,4
2,7905	27,6	-11,9
2,791	29,0	-10,8
2,7915	30,2	-10,7
2,792	30,9	-11,4
2,7925	31,0	-12,6
2,793	30,6	-13,8
2,7935	29,8	-14,8
2,794	29,1	-15,3
2,7945	28,3	-14,9
2,795	27,5	-13,6
2,7955	26,4	-11,2
2,796	24,8	-8,1
2,7965	22,6	-5,3
2,797	20,3	-3,8
2,7975	18,1	-3,9
2,798	16,0	-5,4
2,7985	14,2	-7,4
2,799	13,3	-9,2
2,7995	14,2	-9,9
2,8	17,3	-9,2
2,8005	21,7	-7,7
2,801	26,1	-6,0
2,8015	29,6	-4,9
2,802	31,7	-4,4
2,8025	31,5	-4,7
2,803	28,5	-5,7
2,8035	23,7	-7,6
2,804	18,5	-10,6
2,8045	14,6	-14,0
2,805	12,2	-17,2
2,8055	10,0	-19,3
2,806	6,2	-20,2
2,8065	0,5	-19,9
2,807	-6,4	-19,0
2,8075	-13,7	-18,0
2,808	-20,6	-17,7
2,8085	-26,6	-18,4
2,809	-30,8	-19,8
2,8095	-32,7	-21,6
2,81	-32,6	-23,0
2,8105	-31,0	-23,9
2,811	-28,3	-23,8
2,8115	-24,3	-22,6
2,812	-19,3	-20,4
2,8125	-13,4	-17,7
2,813	-7,0	-15,0
2,8135	0,1	-13,1
2,814	7,9	-12,2
2,8145	15,8	-12,2
2,815	22,6	-13,1
2,8155	27,5	-14,4
2,816	30,4	-15,7
2,8165	32,2	-16,3
2,817	33,5	-16,0
2,8175	34,6	-15,0
2,818	35,0	-13,7
2,8185	34,6	-12,7
2,819	33,3	-12,5
2,8195	31,5	-13,2
2,82	29,5	-14,7
2,8205	27,6	-16,7
2,821	26,1	-18,8
2,8215	25,2	-20,6
2,822	24,6	-21,6
2,8225	24,0	-22,0
2,823	23,3	-21,6
2,8235	22,6	-20,6
2,824	21,7	-19,4
2,8245	20,7	-18,7
2,825	19,6	-19,0
2,8255	18,8	-20,1
2,826	18,6	-21,4
2,8265	19,3	-22,2
2,827	20,3	-22,2
2,8275	21,3	-21,3
2,828	21,9	-19,6
2,8285	21,9	-17,4
2,829	21,6	-15,1
2,8295	21,0	-13,0
2,83	20,0	-11,4
2,8305	18,5	-10,7
2,831	16,8	-10,9
2,8315	15,3	-12,1
2,832	14,3	-13,4
2,8325	14,4	-14,4
2,833	15,5	-14,3
2,8335	17,1	-13,2
2,834	18,4	-11,5
2,8345	18,9	-9,8
2,835	18,4	-8,3
2,8355	17,2	-7,5
2,836	15,5	-7,5
2,8365	13,8	-8,5
2,837	12,2	-10,3
2,8375	10,3	-12,7
2,838	8,4	-15,0
2,8385	6,3	-16,6
2,839	4,3	-17,2
2,8395	2,9	-16,8
2,84	2,1	-15,6
2,8405	2,1	-14,0
2,841	2,8	-12,8
2,8415	3,8	-12,6
2,842	4,8	-13,5
2,8425	6,2	-15,4
2,843	8,1	-17,6
2,8435	10,3	-19,7
2,844	12,3	-21,2
2,8445	13,2	-21,6
2,845	12,6	-20,7
2,8455	11,1	-18,8
2,846	10,2	-16,3
2,8465	11,0	-14,3
2,847	13,0	-13,4
2,8475	14,6	-13,5
2,848	14,9	-14,3
2,8485	13,9	-15,9
2,849	12,9	-17,6
2,8495	12,7	-18,7
2,85	13,0	-18,8
2,8505	13,2	-18,2
2,851	12,5	-17,2
2,8515	11,0	-16,3
2,852	9,6	-15,6
2,8525	9,0	-15,3
2,853	9,8	-15,6
2,8535	11,7	-16,5
2,854	14,2	-18,0
2,8545	16,8	-19,7
2,855	18,9	-21,1
2,8555	20,3	-22,1
2,856	20,8	-22,4
2,8565	21,0	-22,1
2,857	21,3	-21,3
2,8575	21,4	-20,5
2,858	21,1	-20,3
2,8585	19,7	-20,7
2,859	17,7	-21,3
2,8595	15,6	-21,9
2,86	14,0	-22,3
2,8605	12,6	-22,3
2,861	10,8	-22,3
2,8615	8,0	-21,9
2,862	3,4	-21,1
2,8625	-3,0	-19,9
2,863	-9,4	-18,7
2,8635	-13,8	-17,9
2,864	-15,1	-17,9
2,8645	-14,7	-18,8
2,865	-14,7	-20,3
2,8655	-16,4	-22,1
2,866	-19,9	-23,6
2,8665	-24,0	-24,2
2,867	-27,3	-24,0
2,8675	-28,4	-23,3
2,868	-26,6	-22,6
2,8685	-22,4	-22,4
2,869	-17,3	-23,0
2,8695	-13,0	-24,6
2,87	-10,4	-27,0
2,8705	-8,7	-29,9
2,871	-6,8	-32,5
2,8715	-4,6	-34,0
2,872	-2,8	-34,4
2,8725	-1,3	-34,0
2,873	0,8	-33,3
2,8735	5,1	-32,3
2,874	12,2	-31,2
2,8745	21,6	-30,6
2,875	31,8	-30,8
2,8755	40,4	-31,6
2,876	45,8	-32,5
2,8765	47,5	-32,8
2,877	46,3	-32,6
2,8775	43,6	-31,9
2,878	40,6	-30,9
2,8785	38,0	-29,9
2,879	36,3	-28,9
2,8795	35,7	-28,1
2,88	35,5	-27,8
2,8805	35,0	-28,3
2,881	33,8	-29,7
2,8815	32,2	-31,8
2,882	30,4	-34,3
2,8825	29,1	-36,1
2,883	28,3	-36,6
2,8835	28,1	-35,8
2,884	28,6	-34,3
2,8845	29,8	-32,8
2,885	31,1	-31,7
2,8855	32,2	-31,1
2,886	33,1	-31,1
2,8865	34,2	-31,8
2,887	35,7	-32,9
2,8875	37,5	-34,4
2,888	39,5	-35,9
2,8885	41,1	-36,8
2,889	42,1	-36,9
2,8895	42,1	-36,3
2,89	41,3	-35,1
2,8905	39,8	-33,8
2,891	37,7	-33,0
2,8915	34,8	-33,1
2,892	31,3	-33,8
2,8925	27,0	-35,0
2,893	22,4	-36,4
2,8935	17,9	-37,8
2,894	13,8	-39,0
2,8945	10,4	-39,6
2,895	8,1	-39,4
2,8955	6,9	-38,7
2,896	6,5	-37,9
2,8965	6,5	-37,8
2,897	6,4	-38,6
2,8975	6,3	-39,7
2,898	6,6	-40,9
2,8985	7,9	-42,1
2,899	10,9	-43,3
2,8995	16,3	-44,1
2,9	23,8	-44,2
2,9005	32,1	-43,8
2,901	38,9	-43,3
2,9015	42,8	-43,0
2,902	43,0	-43,3
2,9025	39,7	-44,2
2,903	33,8	-45,7
2,9035	27,0	-47,6
2,904	21,0	-49,5
2,9045	16,5	-51,0
2,905	13,2	-51,7
2,9055	10,0	-51,2
2,906	6,2	-49,6
2,9065	1,7	-47,4
2,907	-3,0	-45,1
2,9075	-6,9	-43,5
2,908	-9,4	-42,8
2,9085	-10,5	-43,3
2,909	-10,9	-44,4
2,9095	-11,1	-45,9
2,91	-11,7	-47,1
2,9105	-13,0	-47,8
2,911	-14,9	-47,6
2,9115	-16,5	-46,4
2,912	-16,7	-44,5
2,9125	-14,9	-42,2
2,913	-11,4	-39,9
2,9135	-6,6	-38,4
2,914	-1,1	-38,0
2,9145	3,8	-38,3
2,915	7,2	-39,2
2,9155	8,8	-40,3
2,916	9,3	-41,0
2,9165	9,2	-40,8
2,917	9,1	-39,7
2,9175	8,8	-38,2
2,918	8,4	-37,0
2,9185	7,8	-36,2
2,919	7,5	-35,8
2,9195	8,1	-36,1
2,92	9,9	-37,1
2,9205	12,4	-38,7
2,921	15,1	-40,5
2,9215	17,2	-42,0
2,922	18,4	-42,7
2,9225	19,3	-42,4
2,923	20,2	-41,3
2,9235	21,4	-39,5
2,924	22,8	-37,9
2,9245	23,9	-37,2
2,925	24,7	-38,0
2,9255	25,1	-40,1
2,926	25,4	-42,8
2,9265	25,5	-45,4
2,927	25,4	-47,2
2,9275	25,2	-47,7
2,928	24,7	-46,8
2,9285	23,8	-44,8
2,929	22,5	-42,4
2,9295	20,7	-40,2
2,93	18,7	-38,8
2,9305	16,6	-38,5
2,931	14,7	-38,9
2,9315	13,3	-39,7
2,932	12,4	-40,7
2,9325	12,2	-41,5
2,933	12,5	-41,6
2,9335	13,1	-40,8
2,934	13,8	-39,1
2,9345	14,3	-36,8
2,935	14,4	-34,5
2,9355	14,3	-32,8
2,936	14,3	-31,8
2,9365	14,3	-31,8
2,937	13,9	-32,7
2,9375	13,1	-33,9
2,938	12,6	-34,8
2,9385	12,8	-35,0
2,939	13,7	-34,4
2,9395	14,3	-33,1
2,94	13,9	-31,2
2,9405	13,2	-29,1
2,941	13,0	-27,8
2,9415	13,8	-27,5
2,942	14,8	-28,2
2,9425	15,3	-29,1
2,943	14,5	-29,7
2,9435	12,5	-29,9
2,944	9,8	-29,6
2,9445	6,9	-28,6
2,945	4,3	-27,0
2,9455	1,5	-24,9
2,946	-2,3	-22,6
2,9465	-7,8	-20,3
2,947	-15,3	-18,4
2,9475	-23,9	-17,0
2,948	-32,2	-16,4
2,9485	-39,3	-16,8
2,949	-44,9	-17,7
2,9495	-48,7	-18,1
2,95	-49,9	-17,4
2,9505	-47,7	-15,3
2,951	-42,0	-12,5
2,9515	-33,1	-9,5
2,952	-22,2	-6,9
2,9525	-10,9	-4,9
2,953	-1,3	-3,9
2,9535	5,6	-4,1
2,954	10,1	-5,1
2,9545	13,1	-6,3
2,955	15,4	-6,9
2,9555	17,5	-6,8
2,956	20,0	-6,3
2,9565	23,5	-5,2
2,957	29,1	-3,9
2,9575	37,0	-2,8
2,958	46,1	-2,4
2,9585	54,4	-3,1
2,959	60,3	-4,4
2,9595	63,5	-5,8
2,96	64,4	-6,8
2,9605	62,8	-7,2
2,961	58,5	-6,9
2,9615	52,2	-5,9
2,962	45,0	-4,0
2,9625	38,4	-1,6
2,963	33,0	0,8
2,9635	29,1	2,6
2,964	26,5	3,5
2,9645	25,3	3,5
2,965	25,7	2,9
2,9655	27,4	2,2
2,966	29,2	1,9
2,9665	29,7	2,3
2,967	28,0	3,5
2,9675	24,2	4,9
2,968	18,9	6,3
2,9685	13,3	7,5
2,969	8,5	8,2
2,9695	5,3	8,1
2,97	3,6	7,3
2,9705	2,7	5,6
2,971	1,8	4,1
2,9715	0,5	3,3
2,972	-1,3	3,8
2,9725	-3,5	5,5
2,973	-5,4	7,8
2,9735	-6,5	10,2
2,974	-6,5	12,1
2,9745	-5,8	12,9
2,975	-4,7	12,5
2,9755	-3,4	11,5
2,976	-2,1	10,3
2,9765	-0,8	9,5
2,977	0,3	9,3
2,9775	1,4	10,0
2,978	3,6	11,7
2,9785	8,2	14,3
2,979	16,0	17,0
2,9795	25,7	19,3
2,98	34,6	20,9
2,9805	40,2	21,7
2,981	41,0	21,9
2,9815	36,8	21,6
2,982	29,0	20,9
2,9825	20,4	20,2
2,983	13,7	19,9
2,9835	9,9	20,2
2,984	7,9	20,8
2,9845	5,9	21,8
2,985	2,8	23,2
2,9855	-1,3	24,9
2,986	-5,8	26,4
2,9865	-9,7	27,2
2,987	-13,1	27,1
2,9875	-16,1	26,2
2,988	-19,0	25,0
2,9885	-21,7	24,1
2,989	-24,4	24,0
2,9895	-27,6	25,1
2,99	-31,6	27,2
2,9905	-35,5	29,5
2,991	-37,3	30,8
2,9915	-35,7	30,4
2,992	-30,4	28,6
2,9925	-22,4	26,4
2,993	-13,2	24,7
2,9935	-3,5	23,6
2,994	6,7	23,6
2,9945	17,3	24,7
2,995	27,7	26,7
2,9955	36,1	29,5
2,996	41,1	32,3
2,9965	42,3	34,9
2,997	40,6	36,6
2,9975	37,3	37,3
2,998	33,3	36,6
2,9985	29,4	34,9
2,999	26,0	33,1
2,9995	23,8	32,3
3	22,8	32,8
3,0005	22,7	34,3
3,001	22,9	36,0
3,0015	23,2	37,5
3,002	23,4	38,3
3,0025	23,8	38,1
3,003	24,0	37,1
3,0035	23,7	35,6
3,004	22,8	33,8
3,0045	21,3	32,2
3,005	19,5	31,1
3,0055	17,5	30,8
3,006	15,6	31,4
3,0065	13,8	33,0
3,007	12,4	35,2
3,0075	11,5	37,3
3,008	11,1	38,5
3,0085	11,0	38,8
3,009	11,3	38,7
3,0095	12,0	38,5
3,01	12,6	38,4
3,0105	12,8	38,7
3,011	12,7	39,6
3,0115	12,3	41,2
3,012	11,6	43,5
3,0125	10,4	46,3
3,013	8,7	49,1
3,0135	6,8	51,5
3,014	5,1	53,2
3,0145	3,9	54,0
3,015	3,4	54,0
3,0155	3,4	53,6
3,016	3,9	53,4
3,0165	4,7	53,9
3,017	5,3	55,1
3,0175	5,6	56,3
3,018	5,3	57,2
3,0185	3,6	57,7
3,019	0,4	57,8
3,0195	-4,3	57,2
3,02	-9,4	55,6
3,0205	-13,9	53,2
3,021	-16,8	50,7
3,0215	-17,5	48,9
3,022	-15,9	48,4
3,0225	-12,3	49,0
3,023	-7,3	50,4
3,0235	-1,7	52,1
3,024	3,7	53,8
3,0245	8,5	55,1
3,025	13,0	56,0
3,0255	17,1	56,5
3,026	20,9	56,8
3,0265	24,0	56,9
3,027	26,1	57,0
3,0275	27,4	57,2
3,028	28,8	58,0
3,0285	31,5	59,8
3,029	35,8	62,2
3,0295	41,5	64,9
3,03	47,6	67,2
3,0305	52,6	68,7
3,031	54,3	69,6
3,0315	51,3	70,0
3,032	43,4	70,0
3,0325	31,7	70,0
3,033	18,6	70,2
3,0335	6,3	70,6
3,034	-3,0	71,2
3,0345	-8,6	71,9
3,035	-10,9	72,8
3,0355	-11,0	73,6
3,036	-9,8	73,8
3,0365	-8,3	73,4
3,037	-6,8	72,2
3,0375	-6,0	70,5
3,038	-5,6	68,9
3,0385	-5,0	68,1
3,039	-4,1	68,3
3,0395	-2,7	69,9
3,04	-1,7	72,4
3,0405	-1,6	74,9
3,041	-2,5	76,6
3,0415	-3,7	76,7
3,042	-4,6	75,7
3,0425	-4,9	74,3
3,043	-4,8	73,3
3,0435	-4,8	72,9
3,044	-5,5	73,3
3,0445	-6,8	74,3
3,045	-8,5	75,6
3,0455	-10,2	77,2
3,046	-11,5	79,0
3,0465	-12,3	80,4
3,047	-12,5	81,0
3,0475	-12,4	80,6
3,048	-11,9	79,5
3,0485	-10,9	78,1
3,049	-9,0	76,6
3,0495	-6,5	75,6
3,05	-3,7	75,2
3,0505	-1,0	75,3
3,051	1,3	75,6
3,0515	3,6	75,8
3,052	6,0	75,8
3,0525	8,2	75,3
3,053	9,0	74,3
3,0535	7,9	72,7
3,054	5,3	70,5
3,0545	2,4	68,3
3,055	0,5	66,6
3,0555	0,5	65,9
3,056	2,7	66,0
3,0565	7,2	66,7
3,057	13,3	67,3
3,0575	19,7	67,5
3,058	25,0	66,4
3,0585	29,0	64,3
3,059	32,2	61,8
3,0595	35,2	59,8
3,06	37,9	58,3
3,0605	40,1	57,6
3,061	41,1	57,5
3,0615	40,1	58,1
3,062	36,5	59,5
3,0625	31,0	61,3
3,063	25,0	63,0
3,0635	20,5	63,8
3,064	18,3	63,4
3,0645	18,2	62,2
3,065	19,2	60,5
3,0655	20,2	58,6
3,066	19,8	57,1
3,0665	16,8	56,7
3,067	10,9	57,3
3,0675	3,2	58,5
3,068	-5,1	59,6
3,0685	-12,8	60,2
3,069	-19,5	60,3
3,0695	-24,4	59,9
3,07	-26,9	59,2
3,0705	-27,0	58,3
3,071	-25,2	57,3
3,0715	-22,4	56,8
3,072	-19,8	57,2
3,0725	-17,7	58,5
3,073	-16,8	60,3
3,0735	-17,0	62,2
3,074	-18,0	63,4
3,0745	-18,7	63,5
3,075	-17,9	62,5
3,0755	-14,8	60,8
3,076	-9,6	58,8
3,0765	-3,3	56,9
3,077	3,1	55,1
3,0775	8,5	53,8
3,078	12,8	53,3
3,0785	15,9	53,8
3,079	18,3	55,0
3,0795	19,9	56,1
3,08	20,8	56,6
3,0805	21,6	56,1
3,081	22,7	54,5
3,0815	23,9	52,2
3,082	25,1	49,3
3,0825	26,2	46,5
3,083	27,1	44,2
3,0835	27,9	42,9
3,084	28,4	42,4
3,0845	28,4	42,1
3,085	27,8	41,8
3,0855	26,6	40,7
3,086	25,0	38,6
3,0865	23,3	35,6
3,087	21,9	32,0
3,0875	20,9	28,5
3,088	20,5	25,3
3,0885	20,5	22,8
3,089	20,8	21,3
3,0895	21,2	21,0
3,09	21,8	21,4
3,0905	22,2	21,9
3,091	22,3	21,7
3,0915	22,1	20,1
3,092	21,3	17,1
3,0925	19,9	13,4
3,093	17,8	9,5
3,0935	15,2	6,1
3,094	12,2	3,8
3,0945	9,2	2,7
3,095	7,6	2,8
3,0955	9,4	3,9
3,096	15,2	5,2
3,0965	23,5	6,1
3,097	31,9	6,2
3,0975	37,9	5,3
3,098	40,5	3,2
3,0985	39,2	0,3
3,099	34,7	-2,6
3,0995	28,2	-4,7
3,1	21,2	-5,6
3,1005	14,4	-5,7
3,101	7,4	-5,6
3,1015	-0,6	-5,7
3,102	-9,8	-5,9
3,1025	-19,0	-6,6
3,103	-26,6	-8,1
3,1035	-31,1	-10,4
3,104	-32,1	-12,9
3,1045	-29,7	-15,1
3,105	-25,2	-16,2
3,1055	-20,4	-16,0
3,106	-17,3	-14,4
3,1065	-16,6	-11,7
3,107	-17,6	-8,7
3,1075	-18,3	-6,7
3,108	-16,9	-6,2
3,1085	-12,8	-7,2
3,109	-7,1	-8,7
3,1095	-1,6	-9,8
3,11	1,9	-10,4
3,1105	3,4	-10,7
3,111	4,2	-10,5
3,1115	5,6	-9,4
3,112	8,1	-7,7
3,1125	11,5	-5,9
3,113	15,8	-4,7
3,1135	20,4	-4,4
3,114	24,4	-5,0
3,1145	26,4	-6,1
3,115	26,0	-7,2
3,1155	23,7	-8,0
3,116	20,4	-8,1
3,1165	16,8	-7,2
3,117	13,1	-5,5
3,1175	9,7	-3,8
3,118	7,0	-2,7
3,1185	5,3	-2,9
3,119	5,0	-4,3
3,1195	6,2	-6,5
3,12	8,8	-9,6
3,1205	12,3	-13,3
3,121	15,9	-17,2
3,1215	19,4	-20,4
3,122	22,4	-22,5
3,1225	24,2	-23,4
3,123	24,1	-23,6
3,1235	22,2	-23,6
3,124	19,7	-23,7
3,1245	18,0	-24,4
3,125	17,6	-26,0
3,1255	17,8	-28,4
3,126	17,8	-31,0
3,1265	16,5	-33,1
3,127	14,4	-34,5
3,1275	12,0	-34,9
3,128	10,1	-34,3
3,1285	8,9	-32,9
3,129	8,1	-31,2
3,1295	7,5	-29,7
3,13	6,7	-29,1
3,1305	5,7	-29,6
3,131	4,8	-31,0
3,1315	4,0	-33,2
3,132	3,5	-35,6
3,1325	3,2	-37,4
3,133	2,9	-38,0
3,1335	2,7	-37,4
3,134	2,5	-36,2
3,1345	2,6	-35,2
3,135	3,3	-34,6
3,1355	5,5	-34,8
3,136	10,0	-35,8
3,1365	17,3	-37,6
3,137	26,0	-40,0
3,1375	33,0	-42,7
3,138	35,7	-45,3
3,1385	33,1	-47,2
3,139	26,5	-48,0
3,1395	18,0	-47,7
3,14	9,5	-46,6
3,1405	1,9	-45,4
3,141	-4,3	-45,0
3,1415	-9,3	-45,7
3,142	-13,4	-47,6
3,1425	-17,4	-50,3
3,143	-21,4	-53,0
3,1435	-25,3	-55,2
3,144	-28,3	-56,3
3,1445	-29,8	-56,4
3,145	-29,9	-55,3
3,1455	-28,5	-53,8
3,146	-25,8	-52,4
3,1465	-21,9	-51,7
3,147	-18,0	-51,6
3,1475	-16,0	-52,1
3,148	-16,8	-53,1
3,1485	-19,2	-54,5
3,149	-21,1	-56,0
3,1495	-21,0	-56,9
3,15	-18,6	-57,1
3,1505	-13,5	-56,4
3,151	-5,4	-55,5
3,1515	5,3	-54,5
3,152	17,0	-54,0
3,1525	27,7	-54,2
3,153	35,8	-55,5
3,1535	41,1	-57,6
3,154	43,9	-60,0
3,1545	45,0	-62,2
3,155	44,8	-63,3
3,1555	43,6	-63,6
3,156	41,4	-63,0
3,1565	38,3	-62,0
3,157	34,5	-60,5
3,1575	30,0	-59,0
3,158	25,0	-58,1
3,1585	19,8	-57,7
3,159	14,8	-57,7
3,1595	10,8	-57,9
3,16	8,5	-58,0
3,1605	8,4	-58,1
3,161	10,3	-58,0
3,1615	13,5	-57,4
3,162	17,2	-56,3
3,1625	20,7	-54,8
3,163	23,0	-53,5
3,1635	23,2	-52,7
3,164	20,9	-52,6
3,1645	16,7	-52,9
3,165	11,8	-53,4
3,1655	7,5	-54,1
3,166	4,4	-54,5
3,1665	2,6	-54,3
3,167	2,1	-53,6
3,1675	2,4	-52,6
3,168	3,5	-51,7
3,1685	5,3	-51,3
3,169	7,5	-51,3
3,1695	9,6	-52,0
3,17	10,7	-53,3
3,1705	10,7	-55,1
3,171	9,9	-57,0
3,1715	9,2	-58,4
3,172	8,5	-58,8
3,1725	7,8	-57,9
3,173	7,5	-56,0
3,1735	7,9	-53,5
3,174	8,6	-51,3
3,1745	9,1	-50,0
3,175	9,1	-49,9
3,1755	8,7	-50,9
3,176	7,6	-52,2
3,1765	5,9	-53,2
3,177	4,4	-53,6
3,1775	3,8	-53,0
3,178	4,3	-51,3
3,1785	5,4	-48,9
3,179	6,1	-46,4
3,1795	5,7	-44,4
3,18	4,0	-43,2
3,1805	1,6	-42,8
3,181	-0,8	-43,4
3,1815	-2,6	-45,0
3,182	-3,2	-47,4
3,1825	-2,8	-49,9
3,183	-1,9	-51,5
3,1835	-0,7	-51,7
3,184	0,3	-50,8
3,1845	1,0	-49,3
3,185	1,1	-48,0
3,1855	0,8	-47,2
3,186	0,2	-46,9
3,1865	-0,1	-47,3
3,187	0,1	-48,1
3,1875	0,7	-49,2
3,188	1,1	-49,8
3,1885	0,9	-49,6
3,189	0,2	-48,1
3,1895	-0,5	-45,9
3,19	0,2	-43,3
3,1905	3,3	-40,9
3,191	8,4	-39,2
3,1915	14,3	-38,7
3,192	19,2	-39,2
3,1925	22,1	-40,0
3,193	22,7	-40,9
3,1935	21,5	-41,7
3,194	19,3	-42,1
3,1945	16,8	-41,9
3,195	13,9	-40,8
3,1955	10,6	-39,2
3,196	7,4	-37,5
3,1965	5,0	-36,3
3,197	3,2	-35,8
3,1975	1,9	-36,3
3,198	1,3	-37,7
3,1985	1,5	-39,3
3,199	2,7	-40,7
3,1995	4,5	-41,2
3,2	6,2	-40,6
3,2005	6,8	-39,3
3,201	5,5	-37,8
3,2015	1,8	-36,5
3,202	-3,9	-35,6
3,2025	-11,0	-35,3
3,203	-18,3	-35,8
3,2035	-24,5	-36,8
3,204	-28,4	-38,0
3,2045	-29,8	-38,8
3,205	-29,5	-38,8
3,2055	-28,3	-38,0
3,206	-26,7	-36,4
3,2065	-24,8	-34,2
3,207	-22,8	-31,6
3,2075	-21,3	-29,2
3,208	-20,5	-27,7
3,2085	-20,8	-27,3
3,209	-21,4	-27,6
3,2095	-21,2	-28,2
3,21	-18,9	-28,8
3,2105	-14,4	-29,2
3,211	-8,7	-29,1
3,2115	-3,2	-28,3
3,212	1,6	-26,7
3,2125	5,8	-24,6
3,213	9,7	-22,6
3,2135	13,7	-21,1
3,214	17,2	-20,5
3,2145	19,2	-20,8
3,215	19,8	-21,9
3,2155	20,2	-23,5
3,216	21,0	-24,8
3,2165	21,9	-25,2
3,217	22,6	-24,7
3,2175	22,8	-23,5
3,218	22,8	-22,0
3,2185	22,6	-20,4
3,219	22,3	-19,2
3,2195	22,5	-18,6
3,22	23,0	-19,0
3,2205	23,4	-20,5
3,221	23,1	-22,6
3,2215	22,2	-24,6
3,222	21,0	-25,8
3,2225	19,6	-25,9
3,223	17,9	-25,1
3,2235	15,8	-23,5
3,224	14,0	-21,9
3,2245	12,9	-21,1
3,225	13,0	-21,1
3,2255	14,0	-21,7
3,226	15,4	-22,5
3,2265	16,7	-23,1
3,227	17,7	-23,5
3,2275	18,3	-23,4
3,228	18,8	-22,5
3,2285	19,4	-20,6
3,229	20,3	-18,2
3,2295	21,3	-15,8
3,23	22,6	-14,1
3,2305	23,7	-13,3
3,231	24,4	-13,2
3,2315	24,6	-13,5
3,232	23,9	-13,8
3,2325	22,4	-13,4
3,233	20,4	-12,2
3,2335	18,2	-10,7
3,234	15,9	-9,4
3,2345	13,2	-8,8
3,235	9,5	-8,7
3,2355	4,3	-9,1
3,236	-2,1	-9,9
3,2365	-8,5	-11,5
3,237	-13,5	-13,8
3,2375	-16,5	-16,4
3,238	-18,0	-18,4
3,2385	-18,9	-19,2
3,239	-20,3	-18,8
3,2395	-22,3	-17,7
3,24	-24,4	-16,0
3,2405	-26,0	-14,2
3,241	-27,2	-12,8
3,2415	-27,9	-12,3
3,242	-27,2	-12,7
3,2425	-24,0	-13,7
3,243	-18,4	-14,6
3,2435	-12,2	-14,9
3,244	-7,0	-14,7
3,2445	-3,9	-13,6
3,245	-2,8	-11,8
3,2455	-3,1	-9,7
3,246	-3,7	-7,8
3,2465	-3,5	-6,6
3,247	-2,1	-6,1
3,2475	0,7	-6,1
3,248	4,2	-6,8
3,2485	8,0	-8,5
3,249	11,8	-10,4
3,2495	15,9	-11,7
3,25	20,2	-11,5
3,2505	24,4	-10,3
3,251	28,0	-8,5
3,2515	30,8	-6,5
3,252	32,6	-4,9
3,2525	33,8	-4,2
3,253	34,5	-4,7
3,2535	34,6	-6,2
3,254	33,9	-8,2
3,2545	32,3	-9,9
3,255	30,4	-10,8
3,2555	28,5	-10,7
3,256	26,6	-9,7
3,2565	25,3	-8,3
3,257	24,6	-6,7
3,2575	24,5	-5,5
3,258	24,5	-5,3
3,2585	24,3	-5,9
3,259	23,6	-7,3
3,2595	22,4	-9,0
3,26	20,7	-10,6
3,2605	18,8	-11,5
3,261	17,0	-11,7
3,2615	15,3	-11,2
3,262	12,8	-10,4
3,2625	8,7	-9,7
3,263	3,2	-9,3
3,2635	-2,9	-9,2
3,264	-8,7	-9,5
3,2645	-13,5	-10,3
3,265	-17,4	-11,5
3,2655	-20,3	-12,9
3,266	-21,5	-14,0
3,2665	-20,7	-14,2
3,267	-18,1	-13,6
3,2675	-14,7	-12,3
3,268	-11,4	-11,0
3,2685	-8,7	-9,9
3,269	-6,5	-9,8
3,2695	-4,6	-10,7
3,27	-2,6	-12,6
3,2705	-0,2	-14,9
3,271	2,8	-16,8
3,2715	6,0	-17,8
3,272	9,1	-17,8
3,2725	11,8	-17,0
3,273	14,0	-15,8
3,2735	15,8	-14,6
3,274	17,4	-13,3
3,2745	19,0	-12,3
3,275	20,7	-12,0
3,2755	22,3	-12,3
3,276	23,3	-13,0
3,2765	22,9	-13,6
3,277	20,9	-13,8
3,2775	17,8	-13,3
3,278	15,8	-12,1
3,2785	17,6	-10,5
3,279	24,5	-9,0
3,2795	34,5	-8,1
3,28	44,0	-7,8
3,2805	50,5	-8,1
3,281	53,6	-8,6
3,2815	53,6	-9,4
3,282	50,8	-10,5
3,2825	45,3	-11,6
3,283	37,6	-12,1
3,2835	28,4	-11,6
3,284	18,6	-9,9
3,2845	8,5	-7,6
3,285	-1,4	-5,2
3,2855	-10,7	-3,3
3,286	-18,8	-2,3
3,2865	-24,9	-2,5
3,287	-28,8	-3,9
3,2875	-30,6	-6,1
3,288	-30,6	-8,1
3,2885	-29,2	-9,3
3,289	-27,0	-9,1
3,2895	-24,4	-7,8
3,29	-21,5	-5,8
3,2905	-17,7	-3,8
3,291	-12,8	-2,6
3,2915	-7,6	-2,5
3,292	-3,5	-3,2
3,2925	-1,1	-4,5
3,293	-0,1	-6,1
3,2935	0,9	-7,5
3,294	3,2	-8,4
3,2945	6,8	-8,6
3,295	11,2	-8,0
3,2955	14,8	-6,9
3,296	16,3	-5,8
3,2965	15,3	-5,1
3,297	12,1	-4,8
3,2975	8,0	-5,0
3,298	4,5	-5,6
3,2985	2,4	-6,6
3,299	1,8	-7,5
3,2995	2,1	-7,7
3,3	2,6	-7,1
3,3005	2,7	-6,0
3,301	2,6	-4,9
3,3015	2,8	-3,9
3,302	3,8	-3,3
3,3025	5,5	-3,4
3,303	7,6	-4,8
3,3035	9,7	-7,4
3,304	11,9	-10,6
3,3045	14,2	-13,7
3,305	15,9	-15,9
3,3055	16,5	-16,9
3,306	16,2	-16,6
3,3065	15,5	-15,5
3,307	15,2	-14,1
3,3075	15,6	-13,3
3,308	16,7	-13,8
3,3085	17,7	-15,3
3,309	17,9	-17,4
3,3095	17,1	-19,4
3,31	15,5	-21,0
3,3105	13,9	-21,8
3,311	12,8	-21,7
3,3115	12,4	-20,5
3,312	13,0	-18,2
3,3125	14,3	-15,3
3,313	16,3	-12,4
3,3135	18,7	-10,2
3,314	21,2	-8,9
3,3145	23,4	-8,6
3,315	24,8	-9,0
3,3155	25,0	-9,8
3,316	23,5	-10,5
3,3165	20,6	-10,5
3,317	17,3	-9,8
3,3175	15,2	-8,4
3,318	15,0	-6,8
3,3185	16,8	-5,6
3,319	19,2	-5,0
3,3195	20,1	-5,1
3,32	18,0	-6,0
3,3205	13,0	-7,7
3,321	7,0	-9,8
3,3215	2,4	-11,6
3,322	0,4	-12,7
3,3225	0,4	-13,1
3,323	1,1	-13,1
3,3235	1,8	-12,5
3,324	2,7	-11,8
3,3245	3,6	-11,5
3,325	4,0	-11,8
3,3255	3,7	-12,9
3,326	2,8	-14,1
3,3265	1,7	-15,3
3,327	0,4	-16,0
3,3275	-1,0	-15,9
3,328	-2,8	-15,2
3,3285	-5,6	-13,8
3,329	-9,8	-12,1
3,3295	-15,2	-10,5
3,33	-21,0	-9,3
3,3305	-25,9	-8,7
3,331	-29,4	-8,8
3,3315	-31,2	-9,8
3,332	-30,7	-11,4
3,3325	-27,8	-12,8
3,333	-22,6	-13,4
3,3335	-15,8	-13,0
3,334	-8,5	-11,8
3,3345	-1,6	-10,3
3,335	3,9	-8,8
3,3355	7,6	-7,6
3,336	9,5	-7,2
3,3365	10,3	-7,6
3,337	11,8	-8,9
3,3375	15,5	-10,6
3,338	21,5	-12,3
3,3385	28,0	-13,5
3,339	32,0	-13,9
3,3395	31,8	-13,5
