Interval=	0,0005 s
ExcelDateTime=	4,5911508629897202e+004	11/09/2025 12:12:25,623119
TimeFormat=	StartOfBlock
DateFormat=	
ChannelTitle=	Biceps	Triceps
Range=	1000,0 µV	1000,0 µV
0	-0,2	-0,1
0,0005	-1,8	-0,4
0,001	-6,8	-1,3
0,0015	-14,4	-3,0
0,002	-22,2	-4,9
0,0025	-27,4	-6,8
0,003	-30,3	-8,5
0,0035	-32,1	-9,7
0,004	-33,6	-10,6
0,0045	-34,4	-11,0
0,005	-34,7	-10,9
0,0055	-35,2	-10,3
0,006	-36,5	-9,5
0,0065	-38,1	-8,7
0,007	-39,4	-8,3
0,0075	-40,1	-8,8
0,008	-40,7	-10,0
0,0085	-41,9	-11,8
0,009	-43,9	-13,7
0,0095	-46,1	-15,4
0,01	-47,6	-16,3
0,0105	-47,9	-16,2
0,011	-47,4	-15,5
0,0115	-46,2	-14,5
0,012	-44,4	-13,7
0,0125	-41,9	-13,2
0,013	-38,9	-13,5
0,0135	-36,0	-14,6
0,014	-33,7	-16,3
0,0145	-32,2	-18,3
0,015	-31,3	-20,1
0,0155	-30,5	-21,0
0,016	-29,8	-20,5
0,0165	-29,6	-18,9
0,017	-30,0	-16,8
0,0175	-30,8	-14,8
0,018	-31,3	-13,8
0,0185	-30,5	-13,9
0,019	-28,4	-15,2
0,0195	-25,1	-17,3
0,02	-21,8	-19,3
0,0205	-19,1	-20,6
0,021	-17,8	-20,9
0,0215	-18,5	-20,2
0,022	-21,2	-18,4
0,0225	-25,4	-15,9
0,023	-30,2	-13,4
0,0235	-35,0	-11,7
0,024	-39,8	-11,3
0,0245	-45,2	-12,2
0,025	-51,2	-13,8
0,0255	-56,9	-15,7
0,026	-61,4	-17,5
0,0265	-64,0	-18,5
0,027	-64,4	-18,6
0,0275	-63,2	-17,6
0,028	-61,4	-16,2
0,0285	-59,5	-14,7
0,029	-57,3	-13,9
0,0295	-54,6	-13,8
0,03	-51,2	-14,3
0,0305	-47,0	-15,2
0,031	-42,1	-16,4
0,0315	-37,0	-17,7
0,032	-32,3	-18,5
0,0325	-28,6	-18,6
0,033	-25,4	-18,1
0,0335	-22,3	-17,4
0,034	-19,1	-16,6
0,0345	-15,7	-15,9
0,035	-12,3	-15,3
0,0355	-9,7	-15,0
0,036	-8,3	-15,0
0,0365	-8,7	-15,1
0,037	-11,2	-15,0
0,0375	-15,8	-15,0
0,038	-21,8	-15,2
0,0385	-27,5	-15,7
0,039	-31,5	-16,2
0,0395	-33,3	-16,3
0,04	-33,2	-16,3
0,0405	-31,9	-16,9
0,041	-30,0	-18,5
0,0415	-27,3	-20,7
0,042	-23,8	-22,7
0,0425	-19,8	-24,1
0,043	-16,2	-24,7
0,0435	-13,9	-24,5
0,044	-13,5	-23,7
0,0445	-14,3	-22,2
0,045	-15,0	-20,1
0,0455	-14,6	-18,0
0,046	-13,2	-16,2
0,0465	-11,4	-15,0
0,047	-9,9	-14,2
0,0475	-8,9	-13,8
0,048	-8,4	-14,0
0,0485	-7,9	-14,4
0,049	-7,6	-14,5
0,0495	-8,0	-13,7
0,05	-9,9	-12,0
0,0505	-13,7	-9,9
0,051	-18,5	-8,3
0,0515	-23,1	-7,6
0,052	-26,5	-8,1
0,0525	-29,0	-9,7
0,053	-31,2	-11,8
0,0535	-34,1	-13,6
0,054	-37,6	-14,6
0,0545	-40,8	-14,8
0,055	-42,7	-14,5
0,0555	-42,8	-14,1
0,056	-41,3	-13,5
0,0565	-38,6	-12,9
0,057	-35,1	-12,8
0,0575	-31,6	-13,5
0,058	-28,6	-15,0
0,0585	-26,3	-16,6
0,059	-24,7	-17,8
0,0595	-23,4	-18,5
0,06	-22,4	-18,7
0,0605	-21,9	-18,4
0,061	-22,1	-17,6
0,0615	-22,6	-16,3
0,062	-23,0	-14,7
0,0625	-22,8	-13,4
0,063	-22,2	-12,8
0,0635	-21,5	-12,7
0,064	-20,9	-13,0
0,0645	-20,5	-13,7
0,065	-20,3	-14,3
0,0655	-20,3	-14,3
0,066	-20,0	-13,3
0,0665	-19,7	-11,7
0,067	-19,5	-9,9
0,0675	-19,4	-8,2
0,068	-19,0	-6,7
0,0685	-18,2	-5,9
0,069	-17,2	-6,0
0,0695	-16,3	-7,0
0,07	-15,4	-8,6
0,0705	-14,2	-10,2
0,071	-12,4	-11,3
0,0715	-9,8	-11,5
0,072	-6,9	-10,9
0,0725	-4,8	-9,7
0,073	-4,0	-8,3
0,0735	-4,8	-7,3
0,074	-7,1	-7,4
0,0745	-10,9	-8,8
0,075	-16,1	-11,0
0,0755	-22,3	-13,2
0,076	-29,0	-14,9
0,0765	-35,9	-15,8
0,077	-43,0	-15,8
0,0775	-49,6	-15,0
0,078	-54,8	-14,1
0,0785	-58,8	-13,1
0,079	-61,9	-12,5
0,0795	-64,3	-12,5
0,08	-65,3	-13,4
0,0805	-63,7	-14,8
0,081	-59,3	-16,4
0,0815	-52,9	-17,7
0,082	-46,3	-18,4
0,0825	-40,2	-18,4
0,083	-34,8	-17,8
0,0835	-29,2	-16,9
0,084	-23,2	-16,2
0,0845	-17,5	-15,8
0,085	-13,6	-15,7
0,0855	-12,4	-16,1
0,086	-13,5	-16,7
0,0865	-15,5	-17,6
0,087	-16,9	-18,3
0,0875	-16,6	-18,3
0,088	-13,6	-17,9
0,0885	-8,2	-17,3
0,089	-1,8	-16,8
0,0895	3,2	-16,4
0,09	4,4	-16,3
0,0905	0,8	-17,1
0,091	-7,1	-19,0
0,0915	-17,0	-21,5
0,092	-26,8	-23,9
0,0925	-34,9	-25,8
0,093	-40,5	-27,0
0,0935	-43,7	-27,2
0,094	-45,3	-26,3
0,0945	-46,1	-24,9
0,095	-46,6	-23,2
0,0955	-46,3	-21,9
0,096	-45,0	-21,3
0,0965	-42,8	-21,2
0,097	-40,3	-20,9
0,0975	-37,6	-20,5
0,098	-35,2	-20,3
0,0985	-33,1	-20,6
0,099	-31,7	-20,8
0,0995	-30,7	-20,2
0,1	-29,8	-18,8
0,1005	-28,4	-17,2
0,101	-26,9	-15,8
0,1015	-25,7	-14,8
0,102	-25,3	-14,5
0,1025	-25,8	-15,1
0,103	-27,0	-16,7
0,1035	-27,6	-19,2
0,104	-26,5	-22,0
0,1045	-23,5	-24,3
0,105	-19,5	-25,7
0,1055	-15,7	-26,0
0,106	-13,0	-25,4
0,1065	-11,5	-24,3
0,107	-11,1	-23,4
0,1075	-11,8	-23,5
0,108	-13,2	-24,7
0,1085	-14,9	-26,1
0,109	-16,8	-27,3
0,1095	-18,9	-28,0
0,11	-21,6	-28,3
0,1105	-25,1	-28,4
0,111	-29,3	-27,9
0,1115	-33,7	-26,7
0,112	-37,6	-25,2
0,1125	-40,5	-23,9
0,113	-42,2	-23,5
0,1135	-42,7	-23,7
0,114	-42,0	-24,0
0,1145	-40,2	-24,5
0,115	-38,1	-24,9
0,1155	-36,4	-25,2
0,116	-35,6	-25,0
0,1165	-35,7	-24,5
0,117	-36,2	-24,3
0,1175	-36,8	-24,4
0,118	-36,9	-25,0
0,1185	-36,6	-26,3
0,119	-35,7	-28,0
0,1195	-34,3	-29,9
0,12	-32,9	-31,9
0,1205	-32,3	-33,5
0,121	-32,9	-34,5
0,1215	-35,2	-34,6
0,122	-39,1	-33,9
0,1225	-43,9	-32,6
0,123	-48,7	-30,9
0,1235	-51,9	-29,5
0,124	-52,7	-29,3
0,1245	-51,0	-30,1
0,125	-47,0	-31,8
0,1255	-41,2	-33,5
0,126	-33,8	-34,8
0,1265	-25,5	-34,9
0,127	-17,1	-33,7
0,1275	-9,7	-31,4
0,128	-3,9	-28,8
0,1285	0,2	-26,8
0,129	2,6	-25,9
0,1295	3,7	-26,1
0,13	4,2	-27,1
0,1305	4,6	-28,2
0,131	5,3	-29,0
0,1315	5,9	-29,3
0,132	5,6	-28,9
0,1325	4,1	-27,7
0,133	1,0	-25,9
0,1335	-3,7	-24,0
0,134	-9,8	-22,6
0,1345	-16,5	-21,8
0,135	-23,1	-21,7
0,1355	-28,7	-22,4
0,136	-32,8	-24,1
0,1365	-34,7	-26,6
0,137	-34,4	-29,5
0,1375	-32,4	-31,8
0,138	-29,4	-33,0
0,1385	-26,3	-33,1
0,139	-23,3	-32,5
0,1395	-20,6	-31,7
0,14	-18,3	-31,0
0,1405	-16,4	-31,0
0,141	-14,8	-32,0
0,1415	-13,7	-33,6
0,142	-12,8	-35,2
0,1425	-12,4	-36,2
0,143	-12,9	-36,5
0,1435	-14,3	-36,0
0,144	-16,5	-34,8
0,1445	-18,6	-33,2
0,145	-20,3	-31,9
0,1455	-21,4	-31,4
0,146	-21,6	-32,0
0,1465	-20,8	-33,6
0,147	-19,6	-35,6
0,1475	-18,3	-37,5
0,148	-17,3	-39,0
0,1485	-17,0	-39,6
0,149	-17,9	-38,9
0,1495	-19,8	-37,3
0,15	-22,1	-35,4
0,1505	-24,0	-33,8
0,151	-25,1	-32,8
0,1515	-25,4	-32,5
0,152	-24,8	-32,8
0,1525	-23,3	-33,6
0,153	-21,0	-34,7
0,1535	-18,0	-35,8
0,154	-15,3	-36,7
0,1545	-13,5	-36,9
0,155	-12,9	-36,5
0,1555	-13,0	-35,7
0,156	-13,2	-34,6
0,1565	-13,1	-33,6
0,157	-13,4	-33,1
0,1575	-15,1	-33,6
0,158	-18,2	-35,0
0,1585	-21,7	-36,6
0,159	-24,2	-37,8
0,1595	-24,7	-38,5
0,16	-23,2	-38,6
0,1605	-20,4	-37,8
0,161	-17,5	-36,2
0,1615	-15,5	-34,2
0,162	-15,4	-32,6
0,1625	-17,3	-32,1
0,163	-20,4	-32,5
0,1635	-23,7	-33,4
0,164	-26,3	-34,5
0,1645	-27,9	-35,6
0,165	-28,6	-36,6
0,1655	-28,6	-36,9
0,166	-28,7	-36,1
0,1665	-29,5	-34,1
0,167	-30,8	-31,6
0,1675	-31,9	-29,1
0,168	-32,5	-27,2
0,1685	-32,4	-26,0
0,169	-31,4	-25,8
0,1695	-29,6	-26,3
0,17	-27,6	-27,5
0,1705	-26,0	-28,9
0,171	-24,8	-30,3
0,1715	-23,6	-31,4
0,172	-22,1	-32,0
0,1725	-19,7	-32,2
0,173	-16,4	-32,2
0,1735	-11,9	-32,1
0,174	-6,8	-32,6
0,1745	-1,7	-33,5
0,175	2,8	-34,4
0,1755	6,8	-34,9
0,176	10,9	-35,3
0,1765	14,9	-35,5
0,177	18,4	-35,5
0,1775	20,7	-34,6
0,178	21,2	-32,4
0,1785	19,1	-29,8
0,179	14,0	-27,7
0,1795	6,1	-26,9
0,18	-3,3	-27,3
0,1805	-12,7	-28,8
0,181	-21,6	-30,9
0,1815	-29,4	-33,3
0,182	-36,2	-35,2
0,1825	-42,2	-35,9
0,183	-47,9	-35,8
0,1835	-52,8	-35,2
0,184	-55,4	-34,5
0,1845	-54,7	-34,0
0,185	-50,5	-34,0
0,1855	-44,1	-34,8
0,186	-37,2	-36,3
0,1865	-30,9	-38,1
0,187	-25,7	-39,7
0,1875	-21,3	-40,8
0,188	-17,6	-41,2
0,1885	-14,7	-41,0
0,189	-12,9	-40,3
0,1895	-12,5	-38,8
0,19	-13,2	-37,2
0,1905	-14,8	-35,9
0,191	-16,9	-35,3
0,1915	-19,0	-35,3
0,192	-21,1	-35,7
0,1925	-23,3	-36,3
0,193	-25,7	-37,1
0,1935	-28,4	-37,8
0,194	-30,9	-37,9
0,1945	-32,6	-37,4
0,195	-33,2	-36,5
0,1955	-32,8	-35,6
0,196	-31,7	-35,0
0,1965	-30,0	-34,8
0,197	-27,6	-35,0
0,1975	-24,3	-35,6
0,198	-20,7	-36,6
0,1985	-17,4	-37,5
0,199	-15,3	-37,7
0,1995	-14,6	-37,3
0,2	-15,3	-36,3
0,2005	-17,4	-35,1
0,201	-20,8	-34,1
0,2015	-25,2	-33,5
0,202	-30,4	-33,4
0,2025	-35,9	-33,9
0,203	-41,1	-34,9
0,2035	-45,7	-36,1
0,204	-48,8	-36,8
0,2045	-50,0	-36,7
0,205	-49,1	-35,6
0,2055	-46,5	-34,2
0,206	-43,1	-32,7
0,2065	-39,8	-31,4
0,207	-36,8	-30,6
0,2075	-33,8	-30,9
0,208	-30,8	-32,2
0,2085	-27,7	-33,8
0,209	-24,5	-35,0
0,2095	-20,5	-35,2
0,21	-15,2	-34,3
0,2105	-9,0	-32,7
0,211	-2,9	-30,7
0,2115	2,0	-28,5
0,212	5,4	-26,7
0,2125	7,5	-25,5
0,213	8,4	-25,1
0,2135	8,3	-25,3
0,214	7,7	-26,1
0,2145	6,8	-27,2
0,215	6,1	-28,5
0,2155	5,5	-29,3
0,216	4,6	-29,2
0,2165	3,1	-28,1
0,217	0,6	-26,7
0,2175	-3,1	-25,8
0,218	-7,6	-25,9
0,2185	-12,0	-26,9
0,219	-15,4	-28,9
0,2195	-17,5	-31,3
0,22	-18,1	-33,8
0,2205	-17,3	-35,7
0,221	-15,4	-36,8
0,2215	-12,8	-36,9
0,222	-10,2	-36,2
0,2225	-8,4	-34,8
0,223	-8,0	-33,2
0,2235	-8,8	-31,8
0,224	-10,0	-31,0
0,2245	-10,8	-31,1
0,225	-11,3	-31,8
0,2255	-12,4	-32,4
0,226	-14,0	-32,6
0,2265	-15,8	-32,3
0,227	-16,8	-31,6
0,2275	-16,7	-30,5
0,228	-15,2	-28,9
0,2285	-12,8	-27,2
0,229	-10,4	-25,9
0,2295	-8,9	-25,3
0,23	-8,7	-25,4
0,2305	-9,8	-25,9
0,231	-11,8	-26,6
0,2315	-14,1	-27,6
0,232	-16,8	-28,5
0,2325	-20,3	-28,8
0,233	-24,8	-28,6
0,2335	-29,5	-28,3
0,234	-33,3	-28,3
0,2345	-35,2	-28,8
0,235	-35,2	-29,6
0,2355	-33,7	-30,5
0,236	-31,4	-31,6
0,2365	-29,0	-32,8
0,237	-27,1	-34,0
0,2375	-25,6	-34,7
0,238	-24,3	-34,6
0,2385	-22,4	-33,8
0,239	-19,6	-32,7
0,2395	-16,0	-31,5
0,24	-12,0	-30,3
0,2405	-8,7	-29,6
0,241	-6,5	-29,7
0,2415	-5,4	-30,3
0,242	-5,3	-31,2
0,2425	-5,4	-31,9
0,243	-5,8	-32,3
0,2435	-6,2	-32,3
0,244	-6,8	-31,8
0,2445	-7,5	-30,7
0,245	-8,6	-29,3
0,2455	-10,0	-27,8
0,246	-11,6	-26,5
0,2465	-13,1	-25,8
0,247	-14,3	-25,8
0,2475	-15,3	-26,3
0,248	-16,1	-27,3
0,2485	-16,7	-28,4
0,249	-17,4	-28,8
0,2495	-17,8	-28,3
0,25	-17,8	-26,9
0,2505	-17,3	-25,5
0,251	-16,7	-24,5
0,2515	-15,9	-24,2
0,252	-15,3	-24,7
0,2525	-15,1	-25,8
0,253	-15,8	-27,7
0,2535	-17,1	-29,8
0,254	-18,6	-32,0
0,2545	-19,7	-33,6
0,255	-19,9	-34,8
0,2555	-19,2	-35,6
0,256	-17,8	-36,1
0,2565	-16,2	-36,2
0,257	-14,8	-36,2
0,2575	-13,4	-36,7
0,258	-12,1	-37,8
0,2585	-10,6	-39,2
0,259	-9,2	-40,3
0,2595	-8,3	-41,0
0,26	-8,2	-41,0
0,2605	-8,9	-40,5
0,261	-10,0	-39,7
0,2615	-11,1	-39,2
0,262	-11,7	-39,3
0,2625	-11,6	-39,8
0,263	-10,9	-40,7
0,2635	-9,9	-41,6
0,264	-9,2	-42,7
0,2645	-9,0	-44,1
0,265	-8,9	-45,6
0,2655	-9,0	-46,9
0,266	-9,8	-47,5
0,2665	-11,6	-47,3
0,267	-14,1	-46,3
0,2675	-17,0	-44,5
0,268	-19,8	-42,3
0,2685	-22,0	-40,1
0,269	-23,7	-38,9
0,2695	-24,7	-38,9
0,27	-25,2	-39,8
0,2705	-25,2	-40,8
0,271	-24,5	-41,3
0,2715	-22,9	-41,1
0,272	-20,9	-40,5
0,2725	-18,8	-39,9
0,273	-16,6	-39,4
0,2735	-14,1	-39,3
0,274	-11,1	-40,0
0,2745	-8,3	-41,7
0,275	-7,4	-43,9
0,2755	-9,6	-46,2
0,276	-14,5	-47,8
0,2765	-21,1	-48,4
0,277	-27,8	-47,8
0,2775	-33,6	-46,3
0,278	-37,6	-44,8
0,2785	-39,4	-43,6
0,279	-39,3	-43,3
0,2795	-37,9	-44,1
0,28	-35,5	-45,5
0,2805	-32,0	-47,2
0,281	-27,2	-48,8
0,2815	-21,3	-50,0
0,282	-15,3	-50,3
0,2825	-10,4	-48,9
0,283	-7,2	-46,0
0,2835	-5,6	-42,3
0,284	-4,6	-38,9
0,2845	-3,3	-36,8
0,285	-2,3	-36,2
0,2855	-2,6	-37,1
0,286	-4,7	-39,2
0,2865	-7,7	-42,0
0,287	-10,3	-44,9
0,2875	-11,3	-47,2
0,288	-10,9	-48,3
0,2885	-10,1	-48,3
0,289	-10,1	-47,5
0,2895	-11,2	-46,4
0,29	-13,1	-45,6
0,2905	-15,4	-45,5
0,291	-18,2	-46,5
0,2915	-21,0	-48,3
0,292	-23,7	-50,5
0,2925	-26,2	-52,7
0,293	-28,5	-54,3
0,2935	-30,3	-55,1
0,294	-31,5	-55,1
0,2945	-31,9	-54,5
0,295	-31,6	-53,5
0,2955	-30,4	-52,4
0,296	-28,4	-51,5
0,2965	-25,3	-50,7
0,297	-20,8	-50,1
0,2975	-15,1	-49,8
0,298	-9,1	-49,8
0,2985	-3,8	-50,2
0,299	0,1	-50,3
0,2995	2,8	-49,8
0,3	4,3	-48,8
0,3005	4,6	-47,5
0,301	3,7	-46,3
0,3015	1,8	-45,6
0,302	-0,8	-45,5
0,3025	-3,9	-46,1
0,303	-7,2	-47,4
0,3035	-10,2	-49,0
0,304	-12,4	-50,1
0,3045	-13,3	-50,3
0,305	-12,5	-49,8
0,3055	-10,1	-48,8
0,306	-6,6	-47,8
0,3065	-2,4	-46,6
0,307	2,0	-45,5
0,3075	5,9	-44,8
0,308	8,1	-44,8
0,3085	8,2	-45,3
0,309	6,2	-46,1
0,3095	3,1	-47,1
0,31	0,2	-47,8
0,3105	-2,0	-47,9
0,311	-3,7	-47,3
0,3115	-5,5	-46,4
0,312	-8,2	-45,8
0,3125	-11,7	-46,0
0,313	-14,9	-46,9
0,3135	-17,0	-48,2
0,314	-17,1	-49,4
0,3145	-15,6	-50,6
0,315	-13,4	-51,4
0,3155	-11,5	-51,5
0,316	-11,1	-50,8
0,3165	-12,7	-49,5
0,317	-15,5	-48,0
0,3175	-18,7	-46,5
0,318	-20,8	-44,8
0,3185	-21,2	-43,3
0,319	-19,3	-42,1
0,3195	-15,7	-41,8
0,32	-11,7	-42,3
0,3205	-8,7	-43,5
0,321	-6,9	-44,7
0,3215	-6,0	-45,3
0,322	-5,8	-45,2
0,3225	-6,1	-44,3
0,323	-6,9	-43,0
0,3235	-7,9	-41,6
0,324	-9,0	-40,7
0,3245	-9,9	-40,7
0,325	-10,6	-41,1
0,3255	-11,9	-41,4
0,326	-14,1	-41,3
0,3265	-17,3	-41,1
0,327	-20,8	-40,8
0,3275	-24,3	-40,5
0,328	-27,8	-39,9
0,3285	-30,8	-39,2
0,329	-32,3	-38,8
0,3295	-31,5	-39,0
0,33	-28,4	-40,0
0,3305	-24,1	-41,5
0,331	-19,8	-43,3
0,3315	-16,5	-45,1
0,332	-14,3	-46,7
0,3325	-12,3	-47,5
0,333	-9,9	-47,3
0,3335	-7,2	-46,5
0,334	-4,6	-45,5
0,3345	-2,7	-44,7
0,335	-1,9	-44,0
0,3355	-2,1	-43,8
0,336	-2,8	-44,0
0,3365	-3,3	-44,6
0,337	-3,7	-45,3
0,3375	-4,1	-45,5
0,338	-4,7	-45,2
0,3385	-5,3	-44,1
0,339	-5,7	-42,5
0,3395	-5,5	-40,7
0,34	-4,8	-39,1
0,3405	-3,8	-38,2
0,341	-2,9	-38,3
0,3415	-2,2	-39,3
0,342	-1,3	-40,8
0,3425	-0,3	-42,6
0,343	0,9	-44,3
0,3435	2,2	-45,5
0,344	3,1	-45,6
0,3445	3,3	-44,7
0,345	2,2	-43,0
0,3455	0,1	-41,2
0,346	-2,6	-39,6
0,3465	-5,1	-38,6
0,347	-6,6	-38,3
0,3475	-6,3	-38,9
0,348	-4,1	-40,2
0,3485	-0,5	-41,7
0,349	3,2	-42,7
0,3495	5,8	-43,1
0,35	6,6	-42,9
0,3505	5,5	-42,3
0,351	2,7	-41,4
0,3515	-1,3	-40,4
0,352	-5,8	-40,1
0,3525	-10,3	-40,9
0,353	-13,9	-42,4
0,3535	-16,7	-44,2
0,354	-18,8	-45,3
0,3545	-21,0	-45,6
0,355	-23,6	-45,0
0,3555	-27,0	-43,8
0,356	-30,9	-41,9
0,3565	-34,4	-39,9
0,357	-36,5	-38,3
0,3575	-36,8	-37,9
0,358	-35,4	-38,6
0,3585	-32,9	-39,7
0,359	-29,5	-40,6
0,3595	-25,6	-41,2
0,36	-21,8	-41,4
0,3605	-18,4	-40,9
0,361	-16,0	-39,6
0,3615	-14,3	-37,5
0,362	-13,1	-35,1
0,3625	-11,9	-33,0
0,363	-10,5	-31,6
0,3635	-9,1	-30,9
0,364	-7,2	-30,9
0,3645	-5,1	-31,5
0,365	-2,7	-32,5
0,3655	-0,5	-33,2
0,366	1,3	-33,2
0,3665	3,0	-32,3
0,367	4,4	-30,9
0,3675	5,6	-29,4
0,368	6,8	-28,0
0,3685	8,0	-27,0
0,369	9,5	-26,4
0,3695	11,1	-26,3
0,37	12,3	-26,6
0,3705	12,8	-27,0
0,371	12,3	-27,3
0,3715	10,6	-27,4
0,372	7,3	-27,3
0,3725	2,5	-26,9
0,373	-3,4	-26,4
0,3735	-8,9	-26,3
0,374	-12,8	-27,3
0,3745	-14,3	-29,5
0,375	-13,3	-32,2
0,3755	-10,7	-34,7
0,376	-7,5	-36,6
0,3765	-4,6	-37,7
0,377	-2,6	-38,0
0,3775	-1,7	-37,5
0,378	-1,8	-36,5
0,3785	-2,7	-35,7
0,379	-4,5	-35,3
0,3795	-7,0	-35,5
0,38	-9,8	-36,1
0,3805	-12,6	-37,1
0,381	-15,3	-38,4
0,3815	-17,7	-39,7
0,382	-19,2	-40,6
0,3825	-19,5	-40,9
0,383	-18,7	-40,4
0,3835	-17,0	-39,3
0,384	-14,7	-38,0
0,3845	-12,2	-37,0
0,385	-10,0	-36,7
0,3855	-8,3	-37,4
0,386	-7,5	-39,0
0,3865	-7,8	-41,3
0,387	-8,9	-43,8
0,3875	-10,2	-45,9
0,388	-10,9	-47,1
0,3885	-10,6	-47,3
0,389	-9,3	-46,5
0,3895	-7,4	-45,0
0,39	-5,3	-43,3
0,3905	-3,4	-42,2
0,391	-1,6	-42,2
0,3915	0,5	-42,9
0,392	3,2	-43,9
0,3925	6,3	-44,7
0,393	8,8	-44,9
0,3935	10,2	-44,4
0,394	10,5	-43,4
0,3945	10,1	-41,6
0,395	9,6	-39,2
0,3955	9,0	-36,6
0,396	7,8	-34,6
0,3965	5,6	-33,5
0,397	2,4	-32,9
0,3975	-1,6	-32,8
0,398	-6,3	-33,2
0,3985	-11,1	-34,0
0,399	-15,5	-34,4
0,3995	-19,0	-33,8
0,4	-21,0	-32,3
0,4005	-21,4	-30,4
0,401	-21,1	-28,8
0,4015	-21,0	-27,8
0,402	-21,7	-27,7
0,4025	-22,8	-28,8
0,403	-23,4	-30,6
0,4035	-23,3	-32,5
0,404	-22,5	-33,6
0,4045	-21,5	-33,5
0,405	-20,5	-32,3
0,4055	-19,4	-30,3
0,406	-17,7	-27,9
0,4065	-15,3	-25,4
0,407	-12,1	-23,4
0,4075	-8,6	-22,3
0,408	-5,5	-22,0
0,4085	-3,2	-22,5
0,409	-1,6	-23,5
0,4095	-0,5	-24,9
0,41	0,5	-26,0
0,4105	1,4	-26,4
0,411	2,2	-25,9
0,4115	3,0	-24,6
0,412	3,8	-23,4
0,4125	4,8	-22,8
0,413	5,8	-23,3
0,4135	6,3	-24,6
0,414	6,3	-26,5
0,4145	5,5	-28,7
0,415	3,7	-30,9
0,4155	0,6	-32,8
0,416	-3,7	-34,0
0,4165	-8,0	-34,2
0,417	-11,2	-33,7
0,4175	-12,2	-32,8
0,418	-11,5	-31,8
0,4185	-10,2	-31,0
0,419	-9,3	-30,6
0,4195	-9,0	-30,6
0,42	-8,6	-31,0
0,4205	-7,8	-31,4
0,421	-6,8	-31,7
0,4215	-6,0	-31,6
0,422	-5,8	-31,3
0,4225	-6,0	-30,8
0,423	-5,8	-30,1
0,4235	-4,5	-29,5
0,424	-2,0	-29,2
0,4245	0,6	-29,8
0,425	2,4	-30,8
0,4255	2,6	-31,7
0,426	0,2	-31,8
0,4265	-5,5	-31,3
0,427	-14,1	-30,2
0,4275	-24,0	-28,9
0,428	-32,6	-27,8
0,4285	-38,1	-26,8
0,429	-40,0	-25,8
0,4295	-38,3	-24,9
0,43	-33,6	-24,1
0,4305	-27,0	-23,6
0,431	-19,4	-23,7
0,4315	-11,7	-24,6
0,432	-4,9	-26,0
0,4325	-0,4	-26,9
0,433	1,6	-26,9
0,4335	1,7	-26,2
0,434	0,8	-25,3
0,4345	-0,2	-24,5
0,435	-1,1	-24,0
0,4355	-2,0	-23,9
0,436	-3,3	-24,5
0,4365	-5,2	-25,7
0,437	-8,1	-26,9
0,4375	-11,8	-27,2
0,438	-15,8	-26,0
0,4385	-19,6	-23,6
0,439	-22,9	-20,9
0,4395	-25,3	-18,9
0,44	-27,0	-17,7
0,4405	-27,7	-17,4
0,441	-27,1	-18,0
0,4415	-25,1	-19,3
0,442	-21,9	-20,7
0,4425	-18,3	-21,6
0,443	-14,5	-21,9
0,4435	-10,8	-21,5
0,444	-7,4	-20,6
0,4445	-5,0	-19,6
0,445	-4,1	-18,7
0,4455	-4,3	-17,9
0,446	-4,4	-17,3
0,4465	-3,4	-16,8
0,447	-1,0	-16,5
0,4475	1,9	-16,5
0,448	4,4	-16,9
0,4485	5,8	-17,6
0,449	6,2	-17,8
0,4495	6,0	-17,2
0,45	5,9	-15,8
0,4505	5,8	-14,2
0,451	5,2	-12,6
0,4515	3,5	-11,3
0,452	1,3	-10,7
0,4525	-0,1	-11,1
0,453	1,0	-12,4
0,4535	5,3	-14,3
0,454	11,7	-16,3
0,4545	18,3	-18,1
0,455	23,7	-19,3
0,4555	27,6	-19,9
0,456	29,6	-19,8
0,4565	29,4	-19,0
0,457	27,0	-18,2
0,4575	22,6	-18,0
0,458	16,9	-18,7
0,4585	10,8	-19,8
0,459	4,7	-20,7
0,4595	-0,3	-21,2
0,46	-2,7	-21,2
0,4605	-1,9	-20,7
0,461	1,3	-19,5
0,4615	5,3	-17,7
0,462	8,6	-15,8
0,4625	10,5	-14,4
0,463	10,9	-13,8
0,4635	9,6	-13,9
0,464	6,8	-14,3
0,4645	2,9	-14,9
0,465	-0,8	-15,5
0,4655	-3,2	-15,5
0,466	-3,7	-14,4
0,4665	-3,0	-12,5
0,467	-2,5	-10,5
0,4675	-3,7	-8,9
0,468	-6,7	-8,1
0,4685	-10,8	-8,6
0,469	-15,1	-10,3
0,4695	-18,6	-13,3
0,47	-20,6	-16,7
0,4705	-21,2	-19,8
0,471	-20,8	-22,1
0,4715	-19,4	-23,1
0,472	-17,2	-23,1
0,4725	-14,5	-22,2
0,473	-11,5	-20,7
0,4735	-8,6	-18,9
0,474	-6,2	-17,8
0,4745	-4,7	-17,6
0,475	-3,8	-18,2
0,4755	-3,3	-19,3
0,476	-2,8	-20,3
0,4765	-2,3	-20,9
0,477	-1,9	-21,0
0,4775	-2,3	-20,4
0,478	-4,8	-19,2
0,4785	-10,2	-17,6
0,479	-17,9	-16,1
0,4795	-25,8	-15,1
0,48	-31,8	-14,7
0,4805	-34,7	-14,7
0,481	-34,8	-15,1
0,4815	-32,9	-15,9
0,482	-29,8	-16,6
0,4825	-26,2	-16,7
0,483	-23,0	-16,1
0,4835	-20,7	-15,4
0,484	-19,1	-15,0
0,4845	-17,4	-15,2
0,485	-14,7	-16,1
0,4855	-10,6	-17,6
0,486	-5,4	-19,6
0,4865	-0,3	-21,5
0,487	3,5	-22,8
0,4875	4,8	-23,3
0,488	3,9	-22,9
0,4885	1,9	-22,0
0,489	0,2	-21,2
0,4895	-0,7	-20,5
0,49	-0,3	-19,9
0,4905	1,3	-19,6
0,491	3,8	-20,0
0,4915	6,9	-21,0
0,492	10,0	-22,1
0,4925	12,5	-22,8
0,493	13,7	-22,8
0,4935	13,6	-22,3
0,494	12,3	-21,2
0,4945	10,4	-19,8
0,495	8,1	-18,3
0,4955	5,3	-16,9
0,496	2,0	-16,2
0,4965	-1,2	-16,1
0,497	-3,3	-16,5
0,4975	-3,7	-17,2
0,498	-2,2	-18,1
0,4985	0,7	-19,3
0,499	3,7	-20,5
0,4995	5,7	-21,3
0,5	6,7	-21,8
0,5005	7,0	-22,1
0,501	7,2	-22,3
0,5015	7,7	-22,3
0,502	8,7	-22,2
0,5025	10,3	-22,3
0,503	11,7	-22,9
0,5035	12,1	-23,8
0,504	10,7	-24,5
0,5045	7,3	-24,2
0,505	2,7	-22,8
0,5055	-2,2	-20,7
0,506	-6,8	-18,7
0,5065	-11,3	-17,4
0,507	-15,6	-17,0
0,5075	-19,2	-17,6
0,508	-21,4	-18,8
0,5085	-22,1	-20,2
0,509	-21,5	-21,4
0,5095	-20,6	-22,3
0,51	-20,2	-22,7
0,5105	-20,7	-22,2
0,511	-21,7	-21,0
0,5115	-22,8	-19,4
0,512	-23,2	-18,0
0,5125	-22,3	-17,0
0,513	-19,7	-16,7
0,5135	-15,4	-17,1
0,514	-10,2	-17,7
0,5145	-5,0	-18,3
0,515	-0,3	-18,5
0,5155	3,8	-18,1
0,516	6,9	-17,1
0,5165	8,6	-15,5
0,517	8,6	-14,0
0,5175	7,6	-12,8
0,518	6,9	-12,1
0,5185	7,3	-11,9
0,519	9,1	-12,3
0,5195	12,2	-13,3
0,52	16,2	-14,8
0,5205	20,4	-16,5
0,521	24,0	-18,0
0,5215	26,7	-18,8
0,522	28,5	-18,8
0,5225	29,4	-17,9
0,523	28,9	-16,6
0,5235	26,3	-15,3
0,524	21,3	-14,7
0,5245	14,9	-15,1
0,525	8,5	-16,1
0,5255	3,4	-16,9
0,526	0,4	-17,4
0,5265	-0,6	-17,7
0,527	0,3	-17,5
0,5275	2,6	-16,8
0,528	5,0	-15,5
0,5285	6,8	-13,7
0,529	8,0	-11,9
0,5295	8,5	-10,9
0,53	8,4	-10,6
0,5305	7,6	-10,9
0,531	6,6	-11,5
0,5315	6,6	-12,5
0,532	8,7	-13,5
0,5325	12,7	-14,1
0,533	17,0	-13,8
0,5335	20,0	-12,8
0,534	20,9	-11,1
0,5345	19,3	-9,4
0,535	15,4	-7,9
0,5355	9,9	-7,2
0,536	3,8	-7,5
0,5365	-1,7	-8,6
0,537	-6,3	-10,1
0,5375	-9,8	-11,7
0,538	-11,8	-13,0
0,5385	-12,1	-13,6
0,539	-11,0	-13,4
0,5395	-8,6	-12,1
0,54	-5,4	-10,2
0,5405	-2,2	-8,2
0,541	0,1	-7,3
0,5415	1,1	-7,4
0,542	0,7	-8,2
0,5425	-0,8	-9,0
0,543	-2,7	-9,3
0,5435	-5,1	-8,8
0,544	-8,1	-7,5
0,5445	-11,2	-5,8
0,545	-14,0	-4,0
0,5455	-16,0	-2,5
0,546	-17,4	-1,8
0,5465	-18,6	-1,8
0,547	-19,4	-2,4
0,5475	-19,5	-3,5
0,548	-18,4	-4,8
0,5485	-16,3	-6,1
0,549	-13,5	-7,1
0,5495	-10,9	-7,3
0,55	-9,4	-6,7
0,5505	-9,4	-5,6
0,551	-10,2	-4,6
0,5515	-10,8	-4,2
0,552	-10,6	-4,8
0,5525	-9,3	-6,4
0,553	-6,7	-8,8
0,5535	-2,8	-11,3
0,554	2,0	-13,4
0,5545	6,3	-14,5
0,555	7,8	-14,7
0,5555	4,7	-14,0
0,556	-2,3	-12,9
0,5565	-10,4	-11,7
0,557	-16,8	-10,7
0,5575	-20,3	-10,3
0,558	-21,6	-10,8
0,5585	-21,3	-12,0
0,559	-19,9	-13,3
0,5595	-17,3	-14,3
0,56	-13,5	-14,7
0,5605	-8,8	-14,1
0,561	-4,0	-12,8
0,5615	-0,0	-11,0
0,562	2,8	-8,9
0,5625	4,3	-6,6
0,563	4,3	-4,1
0,5635	2,7	-1,9
0,564	-0,3	-0,9
0,5645	-4,0	-2,0
0,565	-7,3	-5,3
0,5655	-9,6	-9,4
0,566	-10,7	-12,9
0,5665	-10,8	-14,7
0,567	-10,4	-15,0
0,5675	-9,9	-14,4
0,568	-9,3	-13,8
0,5685	-8,4	-13,6
0,569	-7,2	-13,9
0,5695	-5,5	-14,8
0,57	-3,4	-15,8
0,5705	-1,3	-16,7
0,571	0,6	-17,0
0,5715	2,4	-16,2
0,572	4,5	-14,6
0,5725	6,8	-12,3
0,573	9,0	-10,0
0,5735	10,4	-8,3
0,574	10,4	-8,1
0,5745	8,7	-9,6
0,575	5,6	-12,2
0,5755	2,2	-14,9
0,576	-0,5	-16,8
0,5765	-1,8	-17,8
0,577	-2,1	-17,7
0,5775	-2,1	-16,5
0,578	-2,6	-14,9
0,5785	-4,0	-13,4
0,579	-5,8	-12,6
0,5795	-6,8	-12,6
0,58	-6,7	-13,5
0,5805	-5,6	-14,9
0,581	-4,3	-16,4
0,5815	-3,5	-17,6
0,582	-3,6	-17,9
0,5825	-4,6	-16,8
0,583	-5,9	-14,6
0,5835	-7,1	-12,3
0,584	-7,3	-10,8
0,5845	-6,6	-10,3
0,585	-5,4	-10,3
0,5855	-4,1	-11,2
0,586	-3,1	-12,8
0,5865	-2,4	-14,8
0,587	-2,1	-16,6
0,5875	-2,0	-17,6
0,588	-1,8	-17,5
0,5885	-1,1	-16,5
0,589	0,5	-15,3
0,5895	3,1	-13,8
0,59	5,9	-12,4
0,5905	8,3	-11,3
0,591	10,0	-11,0
0,5915	11,3	-11,7
0,592	12,9	-13,0
0,5925	14,6	-14,2
0,593	16,1	-14,8
0,5935	17,0	-14,7
0,594	17,1	-13,6
0,5945	16,2	-11,8
0,595	14,7	-9,8
0,5955	13,0	-7,8
0,596	11,6	-6,5
0,5965	10,4	-6,3
0,597	8,8	-6,8
0,5975	6,0	-7,9
0,598	1,9	-9,3
0,5985	-2,7	-10,7
0,599	-6,6	-11,5
0,5995	-9,1	-11,5
0,6	-9,8	-10,9
0,6005	-9,1	-10,0
0,601	-7,6	-9,3
0,6015	-6,1	-8,9
0,602	-4,8	-9,0
0,6025	-3,7	-9,6
0,603	-2,8	-10,8
0,6035	-1,9	-12,5
0,604	-1,0	-14,3
0,6045	0,2	-15,8
0,605	1,7	-16,4
0,6055	3,6	-16,3
0,606	6,0	-15,6
0,6065	8,3	-14,4
0,607	10,0	-13,0
0,6075	10,8	-11,8
0,608	10,5	-11,6
0,6085	9,8	-12,2
0,609	9,0	-13,1
0,6095	8,8	-13,8
0,61	9,1	-14,0
0,6105	9,9	-13,8
0,611	10,7	-13,4
0,6115	11,4	-12,7
0,612	12,8	-11,7
0,6125	15,5	-10,6
0,613	19,1	-10,1
0,6135	22,5	-10,5
0,614	24,6	-11,8
0,6145	24,8	-13,6
0,615	23,2	-15,4
0,6155	19,6	-16,5
0,616	14,3	-16,5
0,6165	7,8	-15,6
0,617	1,3	-14,4
0,6175	-4,8	-13,2
0,618	-10,0	-12,0
0,6185	-14,7	-11,0
0,619	-18,6	-10,4
0,6195	-21,3	-10,6
0,62	-22,2	-11,6
0,6205	-20,8	-13,0
0,621	-17,6	-14,2
0,6215	-13,6	-14,6
0,622	-10,4	-14,3
0,6225	-9,3	-13,4
0,623	-10,6	-12,3
0,6235	-13,5	-11,3
0,624	-16,9	-11,1
0,6245	-19,5	-11,9
0,625	-20,4	-13,7
0,6255	-19,0	-15,6
0,626	-15,5	-17,0
0,6265	-11,0	-17,7
0,627	-7,3	-17,7
0,6275	-5,2	-17,0
0,628	-4,5	-15,6
0,6285	-4,9	-13,7
0,629	-6,8	-11,8
0,6295	-10,3	-10,2
0,63	-15,2	-9,2
0,6305	-20,5	-8,7
0,631	-24,9	-8,7
0,6315	-26,7	-9,0
0,632	-24,7	-9,5
0,6325	-19,1	-9,5
0,633	-11,2	-8,7
0,6335	-2,6	-7,3
0,634	5,4	-5,5
0,6345	12,4	-4,1
0,635	18,7	-3,5
0,6355	24,6	-4,0
0,636	30,3	-5,4
0,6365	34,6	-7,1
0,637	36,2	-8,5
0,6375	34,1	-9,1
0,638	29,1	-8,8
0,6385	21,9	-8,1
0,639	13,1	-7,1
0,6395	2,8	-6,0
0,64	-8,2	-4,8
0,6405	-18,2	-3,9
0,641	-25,2	-3,9
0,6415	-27,9	-5,1
0,642	-26,5	-7,4
0,6425	-22,7	-10,0
0,643	-18,4	-12,4
0,6435	-14,6	-14,1
0,644	-10,7	-14,7
0,6445	-5,1	-14,2
0,645	3,7	-12,7
0,6455	15,0	-10,5
0,646	26,7	-8,4
0,6465	35,4	-7,1
0,647	40,1	-6,7
0,6475	41,5	-7,2
0,648	40,9	-8,7
0,6485	39,4	-10,7
0,649	37,1	-12,2
0,6495	33,7	-12,4
0,65	28,8	-11,6
0,6505	22,5	-10,4
0,651	14,7	-9,4
0,6515	5,4	-8,9
0,652	-4,7	-8,7
0,6525	-14,8	-9,2
0,653	-24,0	-10,1
0,6535	-31,1	-11,3
0,654	-35,6	-12,3
0,6545	-37,3	-13,0
0,655	-37,0	-13,1
0,6555	-35,3	-12,6
0,656	-32,6	-11,6
0,6565	-29,6	-10,1
0,657	-26,6	-8,3
0,6575	-23,9	-7,2
0,658	-21,2	-7,0
0,6585	-17,8	-7,8
0,659	-13,4	-8,8
0,6595	-7,9	-9,5
0,66	-2,1	-9,7
0,6605	3,3	-9,0
0,661	7,7	-7,5
0,6615	11,3	-5,3
0,662	14,2	-3,0
0,6625	15,7	-1,5
0,663	15,1	-0,8
0,6635	12,5	-0,8
0,664	8,9	-1,4
0,6645	5,0	-2,6
0,665	1,3	-4,2
0,6655	-1,9	-5,5
0,666	-4,2	-6,2
0,6665	-5,1	-6,2
0,667	-4,5	-5,9
0,6675	-2,1	-5,4
0,668	1,9	-5,0
0,6685	8,1	-4,7
0,669	16,3	-4,8
0,6695	25,9	-5,3
0,67	35,0	-6,0
0,6705	41,8	-7,1
0,671	45,0	-8,1
0,6715	44,4	-8,7
0,672	40,3	-8,8
0,6725	33,8	-8,5
0,673	26,7	-7,8
0,6735	20,2	-7,1
0,674	15,1	-6,6
0,6745	11,3	-6,9
0,675	8,6	-7,7
0,6755	6,4	-8,8
0,676	4,3	-9,6
0,6765	2,0	-10,0
0,677	-0,1	-9,8
0,6775	-1,4	-8,8
0,678	-1,8	-7,1
0,6785	-1,3	-4,9
0,679	-0,3	-2,9
0,6795	1,6	-1,3
0,68	4,6	-0,5
0,6805	8,5	-0,2
0,681	12,6	-0,3
0,6815	16,2	-0,9
0,682	18,8	-1,9
0,6825	20,2	-2,8
0,683	20,7	-3,2
0,6835	20,5	-3,4
0,684	19,7	-4,0
0,6845	18,6	-5,0
0,685	17,5	-6,2
0,6855	17,0	-7,5
0,686	17,2	-9,2
0,6865	17,4	-11,3
0,687	16,9	-13,8
0,6875	15,7	-16,0
0,688	14,5	-17,4
0,6885	14,3	-17,8
0,689	15,3	-17,2
0,6895	16,8	-15,7
0,69	17,9	-13,5
0,6905	18,2	-11,0
0,691	18,1	-9,3
0,6915	17,6	-9,0
0,692	16,4	-9,9
0,6925	14,3	-11,4
0,693	11,0	-12,5
0,6935	7,1	-12,8
0,694	2,8	-12,3
0,6945	-1,7	-11,0
0,695	-5,6	-9,2
0,6955	-8,8	-7,2
0,696	-10,8	-5,7
0,6965	-11,1	-5,1
0,697	-9,4	-5,4
0,6975	-6,1	-6,3
0,698	-2,3	-7,5
0,6985	0,6	-8,6
0,699	1,7	-9,1
0,6995	1,1	-8,4
0,7	-0,6	-7,0
0,7005	-2,4	-5,5
0,701	-3,8	-4,5
0,7015	-4,5	-4,1
0,702	-4,4	-4,6
0,7025	-3,6	-5,9
0,703	-2,3	-8,1
0,7035	-0,6	-11,1
0,704	1,2	-14,6
0,7045	2,9	-17,9
0,705	4,3	-20,3
0,7055	5,2	-21,6
0,706	5,7	-21,9
0,7065	5,8	-21,5
0,707	5,6	-21,0
0,7075	5,3	-21,1
0,708	5,3	-22,1
0,7085	6,1	-23,8
0,709	7,3	-25,6
0,7095	8,3	-27,4
0,71	8,3	-28,8
0,7105	7,3	-29,7
0,711	5,4	-30,2
0,7115	3,1	-30,5
0,712	1,6	-30,8
0,7125	1,8	-31,4
0,713	4,0	-32,1
0,7135	7,7	-32,6
0,714	11,4	-32,5
0,7145	14,5	-32,1
0,715	16,4	-31,7
0,7155	17,1	-31,4
0,716	16,0	-31,0
0,7165	12,7	-30,3
0,717	7,2	-29,3
0,7175	0,3	-28,1
0,718	-6,8	-27,2
0,7185	-13,0	-26,9
0,719	-17,7	-27,3
0,7195	-21,0	-28,0
0,72	-23,1	-28,5
0,7205	-24,0	-28,5
0,721	-22,9	-28,2
0,7215	-19,9	-27,9
0,722	-15,9	-27,9
0,7225	-12,2	-28,1
0,723	-9,7	-28,4
0,7235	-8,3	-28,6
0,724	-7,7	-29,1
0,7245	-7,5	-30,1
0,725	-7,3	-31,6
0,7255	-6,6	-32,8
0,726	-5,4	-33,1
0,7265	-4,2	-32,8
0,727	-3,5	-31,9
0,7275	-3,6	-30,6
0,728	-4,2	-29,1
0,7285	-5,1	-27,5
0,729	-6,0	-26,2
0,7295	-6,5	-25,3
0,73	-6,5	-24,8
0,7305	-5,5	-24,8
0,731	-3,2	-25,2
0,7315	0,1	-25,9
0,732	3,6	-26,7
0,7325	6,3	-26,9
0,733	7,9	-26,3
0,7335	9,1	-25,2
0,734	10,8	-24,0
0,7345	13,2	-23,2
0,735	15,9	-22,7
0,7355	18,1	-22,4
0,736	19,0	-22,1
0,7365	18,2	-21,5
0,737	15,5	-21,0
0,7375	10,8	-20,8
0,738	4,8	-21,0
0,7385	-1,3	-21,0
0,739	-6,1	-20,7
0,7395	-8,3	-19,5
0,74	-7,0	-17,5
0,7405	-2,6	-15,3
0,741	3,7	-13,7
0,7415	10,8	-13,0
0,742	18,4	-13,0
0,7425	26,2	-13,1
0,743	33,3	-13,0
0,7435	38,3	-12,9
0,744	40,0	-12,8
0,7445	38,6	-12,3
0,745	34,2	-11,0
0,7455	27,3	-9,3
0,746	18,3	-8,1
0,7465	8,5	-8,0
0,747	-0,6	-9,0
0,7475	-8,2	-10,7
0,748	-14,1	-12,8
0,7485	-18,2	-14,9
0,749	-20,0	-16,1
0,7495	-20,0	-15,8
0,75	-19,3	-14,3
0,7505	-19,1	-12,4
0,751	-19,7	-10,7
0,7515	-19,6	-9,3
0,752	-17,8	-8,3
0,7525	-14,3	-7,7
0,753	-10,4	-7,6
0,7535	-7,6	-7,9
0,754	-6,9	-8,5
0,7545	-8,4	-9,0
0,755	-11,7	-9,3
0,7555	-15,7	-9,0
0,756	-19,0	-8,2
0,7565	-20,7	-6,8
0,757	-20,2	-5,4
0,7575	-17,5	-4,5
0,758	-13,2	-4,5
0,7585	-7,9	-5,5
0,759	-1,9	-6,7
0,7595	4,8	-7,7
0,76	11,7	-7,8
0,7605	18,6	-6,9
0,761	25,4	-5,1
0,7615	32,2	-2,8
0,762	38,5	-0,5
0,7625	43,7	1,3
0,763	47,1	2,0
0,7635	48,6	1,8
0,764	48,3	1,3
0,7645	46,8	0,3
0,765	44,4	-1,0
0,7655	40,7	-2,3
0,766	35,5	-2,8
0,7665	28,8	-2,1
0,767	21,3	-0,2
0,7675	13,7	2,3
0,768	6,5	4,8
0,7685	0,5	6,8
0,769	-4,0	8,1
0,7695	-6,5	8,1
0,77	-7,5	6,9
0,7705	-7,8	5,2
0,771	-8,6	3,4
0,7715	-9,4	2,0
0,772	-8,8	0,9
0,7725	-4,7	-0,1
0,773	2,9	-1,0
0,7735	12,2	-1,4
0,774	20,8	-1,5
0,7745	27,3	-1,6
0,775	31,7	-2,2
0,7755	33,6	-3,0
0,776	33,1	-3,5
0,7765	30,1	-3,6
0,777	25,1	-3,3
0,7775	19,0	-2,9
0,778	12,6	-2,4
0,7785	6,6	-1,7
0,779	1,7	-0,9
0,7795	-1,8	-0,5
0,78	-3,9	-0,7
0,7805	-5,2	-1,5
0,781	-6,1	-2,7
0,7815	-6,7	-3,9
0,782	-6,7	-5,1
0,7825	-5,7	-5,7
0,783	-3,7	-5,5
0,7835	-0,6	-4,8
0,784	3,4	-3,7
0,7845	7,8	-2,7
0,785	11,9	-1,8
0,7855	15,3	-1,4
0,786	17,8	-1,6
0,7865	19,7	-2,4
0,787	21,3	-3,5
0,7875	22,8	-4,5
0,788	24,6	-4,7
0,7885	26,2	-4,4
0,789	27,1	-3,8
0,7895	27,0	-3,0
0,79	26,0	-2,1
0,7905	24,5	-1,3
0,791	22,7	-1,0
0,7915	20,4	-1,5
0,792	17,2	-2,7
0,7925	13,0	-4,3
0,793	7,8	-6,0
0,7935	1,7	-7,6
0,794	-4,6	-8,6
0,7945	-10,3	-8,5
0,795	-14,4	-7,3
0,7955	-16,8	-5,3
0,796	-17,6	-3,5
0,7965	-17,0	-2,5
0,797	-15,8	-2,3
0,7975	-14,4	-2,9
0,798	-13,3	-3,8
0,7985	-12,5	-4,6
0,799	-11,9	-4,8
0,7995	-11,6	-3,9
0,8	-11,8	-2,3
0,8005	-12,5	-0,4
0,801	-13,6	1,0
0,8015	-14,8	1,8
0,802	-16,1	2,1
0,8025	-17,3	2,1
0,803	-18,1	1,8
0,8035	-18,6	0,8
0,804	-18,4	-0,4
0,8045	-17,8	-1,5
0,805	-17,0	-2,2
0,8055	-16,2	-2,4
0,806	-15,3	-2,1
0,8065	-14,3	-1,4
0,807	-12,5	-0,5
0,8075	-9,3	-0,1
0,808	-5,0	-0,4
0,8085	0,0	-1,6
0,809	4,1	-3,0
0,8095	5,7	-4,0
0,81	4,5	-4,3
0,8105	2,1	-3,8
0,811	0,5	-2,5
0,8115	1,0	-0,8
0,812	3,3	1,3
0,8125	6,2	3,3
0,813	9,0	4,6
0,8135	11,5	4,9
0,814	14,2	4,2
0,8145	17,1	2,9
0,815	20,6	1,5
0,8155	24,4	0,5
0,816	28,0	0,6
0,8165	30,9	1,9
0,817	32,7	3,9
0,8175	33,4	5,9
0,818	32,9	7,3
0,8185	31,5	8,1
0,819	29,4	7,8
0,8195	27,0	6,3
0,82	24,3	4,3
0,8205	21,4	2,3
0,821	18,9	0,9
0,8215	17,3	0,1
0,822	16,9	0,1
0,8225	17,3	0,9
0,823	17,1	2,3
0,8235	15,2	3,8
0,824	11,5	4,8
0,8245	7,5	4,8
0,825	4,9	4,1
0,8255	4,9	2,9
0,826	7,4	1,8
0,8265	11,3	0,7
0,827	15,5	-0,4
0,8275	19,2	-1,2
0,828	22,3	-1,3
0,8285	25,2	-1,0
0,829	27,8	-0,2
0,8295	29,9	0,8
0,83	30,4	2,0
0,8305	28,3	3,2
0,831	23,6	4,2
0,8315	17,2	4,6
0,832	10,8	4,5
0,8325	5,5	4,5
0,833	1,9	5,0
0,8335	-0,1	6,1
0,834	-0,6	7,4
0,8345	0,3	8,9
0,835	2,5	10,2
0,8355	6,1	11,1
0,836	10,6	11,1
0,8365	15,4	10,1
0,837	19,4	8,3
0,8375	21,8	6,5
0,838	22,6	4,9
0,8385	22,3	3,8
0,839	21,4	3,3
0,8395	20,0	3,4
0,84	18,0	4,6
0,8405	15,2	6,7
0,841	11,9	8,7
0,8415	8,2	10,2
0,842	3,6	10,8
0,8425	-2,7	10,7
0,843	-10,7	9,9
0,8435	-18,5	9,0
0,844	-23,8	8,6
0,8445	-25,3	9,0
0,845	-24,1	10,2
0,8455	-21,7	11,4
0,846	-18,6	12,2
0,8465	-14,3	12,5
0,847	-8,5	12,6
0,8475	-2,1	12,8
0,848	3,0	13,2
0,8485	5,7	13,6
0,849	6,1	14,4
0,8495	5,3	15,7
0,85	4,1	17,3
0,8505	3,0	18,8
0,851	2,4	19,6
0,8515	2,7	19,6
0,852	4,2	18,9
0,8525	6,5	17,4
0,853	8,6	15,4
0,8535	10,0	13,2
0,854	10,3	11,5
0,8545	9,6	10,8
0,855	8,4	11,2
0,8555	7,3	12,4
0,856	6,9	14,0
0,8565	7,7	15,4
0,857	9,9	16,5
0,8575	13,6	16,8
0,858	18,4	16,2
0,8585	23,0	14,8
0,859	26,4	13,1
0,8595	27,9	11,6
0,86	27,7	10,6
0,8605	26,5	10,4
0,861	25,0	11,0
0,8615	23,6	12,5
0,862	22,6	14,8
0,8625	21,6	17,3
0,863	20,1	19,2
0,8635	17,9	20,1
0,864	15,2	19,7
0,8645	12,3	18,0
0,865	9,8	15,7
0,8655	8,3	13,4
0,866	8,3	12,0
0,8665	10,3	11,7
0,867	14,5	12,1
0,8675	20,5	12,5
0,868	26,6	12,7
0,8685	30,7	12,3
0,869	31,8	11,2
0,8695	30,3	9,5
0,87	27,5	7,1
0,8705	24,7	4,4
0,871	22,2	2,3
0,8715	19,6	1,1
0,872	16,3	1,3
0,8725	12,5	2,4
0,873	8,5	4,3
0,8735	4,6	6,3
0,874	0,8	8,1
0,8745	-2,6	9,1
0,875	-5,1	9,2
0,8755	-6,0	8,6
0,876	-5,2	7,9
0,8765	-3,2	7,5
0,877	-0,5	7,8
0,8775	3,0	9,2
0,878	8,1	11,7
0,8785	14,1	14,7
0,879	19,3	17,5
0,8795	21,4	19,3
0,88	20,3	19,8
0,8805	16,9	19,2
0,881	13,0	18,1
0,8815	9,2	16,8
0,882	5,7	15,7
0,8825	2,3	14,8
0,883	-0,6	14,7
0,8835	-2,3	15,3
0,884	-2,2	16,3
0,8845	-0,3	17,0
0,885	2,5	17,3
0,8855	5,3	16,8
0,886	7,1	15,8
0,8865	7,6	14,3
0,887	6,6	12,5
0,8875	4,7	10,8
0,888	2,3	9,6
0,8885	0,5	9,3
0,889	0,3	9,9
0,8895	2,5	11,3
0,89	6,9	13,2
0,8905	12,5	15,2
0,891	17,6	16,5
0,8915	21,2	16,8
0,892	23,0	16,3
0,8925	23,0	15,8
0,893	21,4	15,8
0,8935	18,5	16,3
0,894	14,4	17,0
0,8945	10,0	17,6
0,895	6,0	18,1
0,8955	3,4	18,7
0,896	2,5	19,4
0,8965	3,0	20,0
0,897	4,3	20,2
0,8975	6,1	19,9
0,898	8,5	19,0
0,8985	11,7	17,7
0,899	15,4	16,6
0,8995	18,9	16,5
0,9	21,4	17,5
0,9005	22,7	19,3
0,901	22,9	21,3
0,9015	22,3	22,5
0,902	21,1	22,6
0,9025	19,4	21,6
0,903	16,7	19,5
0,9035	13,4	16,8
0,904	10,4	13,9
0,9045	8,7	11,8
0,905	8,8	10,6
0,9055	10,4	10,3
0,906	13,4	10,6
0,9065	17,3	11,1
0,907	21,4	11,7
0,9075	24,5	11,8
0,908	25,9	11,3
0,9085	25,5	10,2
0,909	24,0	8,9
0,9095	21,8	7,8
0,91	19,7	7,2
0,9105	18,0	7,1
0,911	17,1	7,9
0,9115	17,3	9,4
0,912	18,3	11,4
0,9125	20,2	13,3
0,913	22,3	14,6
0,9135	24,5	15,2
0,914	26,3	15,3
0,9145	27,5	15,3
0,915	28,6	15,1
0,9155	29,3	14,6
0,916	29,7	14,0
0,9165	29,6	14,0
0,917	29,2	14,8
0,9175	28,9	16,2
0,918	28,8	17,8
0,9185	28,3	18,8
0,919	26,9	18,6
0,9195	24,5	17,5
0,92	21,2	15,8
0,9205	17,3	14,2
0,921	13,5	13,1
0,9215	10,3	12,6
0,922	8,1	12,8
0,9225	6,6	13,5
0,923	5,7	14,4
0,9235	5,4	15,4
0,924	5,8	15,9
0,9245	6,9	15,7
0,925	9,1	14,6
0,9255	12,1	13,0
0,926	15,4	11,5
0,9265	18,0	10,7
0,927	19,2	10,6
0,9275	18,8	11,3
0,928	17,3	12,7
0,9285	15,3	14,7
0,929	12,9	16,9
0,9295	10,5	18,8
0,93	8,1	20,1
0,9305	6,0	20,7
0,931	4,5	20,5
0,9315	3,8	19,3
0,932	4,1	17,4
0,9325	4,8	15,7
0,933	5,6	14,9
0,9335	6,3	15,6
0,934	6,6	17,5
0,9345	6,3	19,8
0,935	5,5	21,9
0,9355	4,4	23,2
0,936	3,6	23,3
0,9365	3,5	22,3
0,937	4,2	20,3
0,9375	5,6	18,1
0,938	7,1	16,2
0,9385	8,5	15,3
0,939	9,8	15,3
0,9395	11,5	15,8
0,94	13,3	16,6
0,9405	14,5	17,3
0,941	14,8	17,3
0,9415	14,2	16,5
0,942	13,5	15,2
0,9425	13,3	13,8
0,943	13,5	12,8
0,9435	13,6	12,3
0,944	13,7	12,5
0,9445	14,6	13,6
0,945	16,9	15,3
0,9455	20,3	17,5
0,946	23,3	19,5
0,9465	24,4	20,8
0,947	23,2	21,3
0,9475	20,9	20,9
0,948	18,7	19,7
0,9485	17,4	17,9
0,949	17,2	16,1
0,9495	18,1	14,9
0,95	19,6	14,7
0,9505	20,8	15,1
0,951	20,9	15,4
0,9515	20,0	15,4
0,952	19,0	15,0
0,9525	18,7	14,3
0,953	19,2	13,7
0,9535	20,8	13,2
0,954	23,1	12,5
0,9545	26,1	12,2
0,955	29,0	12,4
0,9555	31,3	13,2
0,956	32,8	14,4
0,9565	33,5	15,7
0,957	33,8	16,8
0,9575	33,4	17,7
0,958	31,8	17,9
0,9585	28,1	17,4
0,959	21,8	16,1
0,9595	14,0	14,3
0,96	6,8	12,3
0,9605	2,5	10,6
0,961	1,3	10,1
0,9615	2,8	11,0
0,962	5,6	13,2
0,9625	9,1	15,7
0,963	12,4	17,6
0,9635	15,0	18,2
0,964	16,5	17,6
0,9645	16,9	16,4
0,965	16,6	14,8
0,9655	16,2	13,4
0,966	16,1	12,7
0,9665	16,6	13,3
0,967	17,6	14,8
0,9675	18,8	16,6
0,968	20,2	18,1
0,9685	21,1	19,0
0,969	20,7	19,3
0,9695	18,4	18,6
0,97	14,3	17,2
0,9705	9,5	15,2
0,971	5,2	13,3
0,9715	2,4	12,0
0,972	1,4	11,3
0,9725	2,3	11,3
0,973	4,9	11,7
0,9735	9,0	12,0
0,974	14,0	11,9
0,9745	19,3	11,1
0,975	24,3	9,5
0,9755	28,7	8,0
0,976	32,4	7,0
0,9765	35,3	6,9
0,977	37,2	7,4
0,9775	38,0	8,3
0,978	38,0	9,5
0,9785	37,3	10,9
0,979	35,9	12,3
0,9795	33,7	13,5
0,98	30,8	14,2
0,9805	28,0	14,4
0,981	26,0	14,3
0,9815	25,0	13,6
0,982	24,5	12,5
0,9825	23,8	11,3
0,983	22,5	11,0
0,9835	20,9	11,6
0,984	19,5	13,0
0,9845	18,4	14,4
0,985	17,4	15,6
0,9855	16,0	16,0
0,986	14,1	15,8
0,9865	12,3	14,8
0,987	11,1	13,2
0,9875	10,6	11,4
0,988	10,8	10,0
0,9885	11,1	9,4
0,989	11,3	9,3
0,9895	11,5	9,4
0,99	12,2	9,7
0,9905	13,3	9,9
0,991	15,0	9,6
0,9915	16,9	8,5
0,992	18,8	6,6
0,9925	20,5	4,6
0,993	21,9	2,8
0,9935	22,9	1,5
0,994	23,6	0,9
0,9945	24,2	1,2
0,995	24,8	2,2
0,9955	25,4	3,6
0,996	25,6	4,8
0,9965	24,8	5,3
0,997	22,9	4,8
0,9975	19,9	3,8
0,998	16,5	2,7
0,9985	13,3	1,7
0,999	10,8	1,4
0,9995	8,4	1,9
1	6,3	3,1
1,0005	4,4	4,7
1,001	3,2	6,3
1,0015	2,7	7,5
1,002	2,7	8,3
1,0025	3,1	8,3
1,003	3,9	7,3
1,0035	5,5	5,4
1,004	7,6	3,1
1,0045	10,0	1,1
1,005	12,3	0,2
1,0055	14,5	0,3
1,006	16,5	1,2
1,0065	18,4	2,6
1,007	20,1	4,0
1,0075	21,7	4,8
1,008	23,4	4,1
1,0085	25,5	2,3
1,009	28,0	0,1
1,0095	30,3	-1,8
1,01	32,3	-3,2
1,0105	33,9	-3,9
1,011	35,7	-3,9
1,0115	38,0	-3,0
1,012	40,3	-1,5
1,0125	41,8	0,0
1,013	41,8	1,0
1,0135	40,4	1,2
1,014	37,8	0,3
1,0145	34,0	-1,2
1,015	29,7	-2,9
1,0155	25,5	-4,2
1,016	22,3	-4,2
1,0165	20,2	-2,8
1,017	18,9	-0,5
1,0175	17,8	1,8
1,018	16,5	3,4
1,0185	14,9	3,9
1,019	13,2	3,2
1,0195	11,5	1,9
1,02	10,1	0,3
1,0205	9,4	-1,1
1,021	10,6	-2,1
1,0215	14,7	-2,2
1,022	21,5	-1,5
1,0225	29,8	-0,3
1,023	37,4	1,0
1,0235	42,9	2,6
1,024	46,0	4,2
1,0245	46,8	5,4
1,025	45,4	5,9
1,0255	42,4	5,9
1,026	38,3	6,0
1,0265	33,4	6,2
1,027	28,1	6,6
1,0275	22,8	7,0
1,028	18,1	7,8
1,0285	14,7	8,8
1,029	12,9	10,1
1,0295	12,1	10,9
1,03	10,9	10,7
1,0305	7,8	9,2
1,031	2,5	7,0
1,0315	-3,1	4,3
1,032	-7,0	1,5
1,0325	-7,9	-1,1
1,033	-6,3	-2,8
1,0335	-3,3	-3,7
1,034	0,3	-3,9
1,0345	4,2	-3,9
1,035	8,6	-4,0
1,0355	13,8	-4,4
1,036	19,3	-5,2
1,0365	23,8	-6,3
1,037	26,2	-7,2
1,0375	26,7	-7,6
1,038	26,1	-7,1
1,0385	24,6	-5,8
1,039	21,1	-3,9
1,0395	14,1	-1,8
1,04	3,6	0,3
1,0405	-8,7	2,2
1,041	-20,5	3,2
1,0415	-29,6	2,8
1,042	-34,4	1,2
1,0425	-34,0	-0,7
1,043	-28,3	-2,1
1,0435	-18,6	-2,7
1,044	-6,9	-2,5
1,0445	5,0	-1,7
1,045	15,9	-0,4
1,0455	25,7	1,0
1,046	34,3	2,0
1,0465	41,6	2,1
1,047	47,2	1,2
1,0475	50,5	-0,3
1,048	51,5	-1,8
1,0485	50,2	-3,6
1,049	46,7	-5,5
1,0495	41,8	-6,7
1,05	36,4	-6,8
1,0505	31,8	-5,7
1,051	28,5	-4,1
1,0515	26,2	-2,7
1,052	24,8	-2,0
1,0525	24,1	-2,3
1,053	23,8	-3,3
1,0535	23,7	-4,4
1,054	23,7	-5,5
1,0545	23,7	-6,3
1,055	24,0	-7,0
1,0555	24,8	-7,4
1,056	25,9	-7,5
1,0565	27,2	-7,0
1,057	28,3	-6,1
1,0575	28,9	-5,2
1,058	29,0	-5,2
1,0585	28,8	-6,1
1,059	28,5	-7,5
1,0595	27,9	-8,7
1,06	26,9	-9,2
1,0605	25,3	-9,0
1,061	23,7	-8,1
1,0615	22,2	-6,9
1,062	20,1	-5,6
1,0625	16,6	-4,8
1,063	11,8	-5,1
1,0635	7,0	-6,3
1,064	3,6	-8,0
1,0645	1,8	-9,6
1,065	1,1	-10,8
1,0655	1,4	-11,4
1,066	2,9	-11,4
1,0665	5,7	-10,8
1,067	9,4	-9,8
1,0675	13,5	-8,7
1,068	17,3	-7,8
1,0685	20,2	-7,1
1,069	22,2	-7,3
1,0695	23,8	-8,3
1,07	25,2	-10,2
1,0705	26,7	-12,4
1,071	28,3	-14,2
1,0715	30,0	-15,2
1,072	31,7	-15,3
1,0725	33,0	-14,5
1,073	33,6	-12,9
1,0735	33,2	-10,7
1,074	31,7	-8,7
1,0745	29,4	-7,6
1,075	26,9	-7,9
1,0755	25,5	-9,4
1,076	26,0	-11,5
1,0765	28,1	-13,5
1,077	30,4	-14,8
1,0775	31,5	-15,3
1,078	30,6	-15,1
1,0785	27,9	-14,5
1,079	24,0	-13,7
1,0795	19,6	-12,9
1,08	15,2	-12,0
1,0805	11,2	-10,9
1,081	8,0	-10,1
1,0815	5,7	-9,7
1,082	4,5	-10,1
1,0825	4,3	-10,8
1,083	4,9	-11,3
1,0835	6,2	-10,9
1,084	7,6	-9,6
1,0845	8,9	-7,8
1,085	10,2	-6,1
1,0855	11,4	-4,9
1,086	12,3	-4,8
1,0865	12,5	-5,8
1,087	12,4	-7,6
1,0875	12,8	-9,7
1,088	14,6	-11,2
1,0885	17,9	-12,0
1,089	22,0	-12,3
1,0895	25,9	-12,5
1,09	29,2	-12,4
1,0905	31,9	-12,0
1,091	34,2	-12,0
1,0915	36,2	-12,7
1,092	37,4	-13,9
1,0925	37,1	-15,3
1,093	34,6	-16,5
1,0935	30,6	-17,5
1,094	26,4	-17,8
1,0945	23,3	-17,3
1,095	21,5	-15,9
1,0955	20,7	-14,0
1,096	20,5	-12,0
1,0965	20,8	-10,4
1,097	21,3	-9,5
1,0975	21,9	-9,3
1,098	21,8	-9,6
1,0985	21,0	-10,6
1,099	20,6	-12,0
1,0995	21,4	-13,4
1,1	23,6	-14,4
1,1005	26,3	-15,0
1,101	28,6	-15,5
1,1015	30,0	-16,3
1,102	30,5	-17,4
1,1025	29,9	-18,9
1,103	28,0	-20,8
1,1035	24,9	-23,3
1,104	20,8	-26,2
1,1045	16,6	-28,8
1,105	12,9	-30,4
1,1055	10,5	-30,7
1,106	9,5	-30,0
1,1065	9,9	-28,7
1,107	12,0	-27,3
1,1075	15,3	-26,3
1,108	19,0	-26,0
1,1085	22,3	-26,4
1,109	25,1	-27,1
1,1095	27,5	-27,7
1,11	29,3	-28,1
1,1105	30,3	-27,9
1,111	29,7	-26,9
1,1115	27,2	-24,8
1,112	23,2	-22,3
1,1125	18,5	-19,9
1,113	14,1	-18,4
1,1135	11,3	-18,3
1,114	10,1	-19,3
1,1145	9,8	-21,1
1,115	9,5	-23,4
1,1155	7,9	-25,6
1,116	4,4	-27,0
1,1165	-0,7	-27,3
1,117	-6,1	-26,6
1,1175	-11,1	-25,3
1,118	-15,5	-24,0
1,1185	-19,3	-23,0
1,119	-22,2	-22,7
1,1195	-23,2	-23,1
1,12	-21,9	-24,3
1,1205	-18,4	-25,8
1,121	-13,0	-27,2
1,1215	-6,1	-27,8
1,122	2,1	-27,4
1,1225	11,2	-26,3
1,123	20,6	-24,4
1,1235	29,2	-22,1
1,124	35,9	-20,1
1,1245	40,4	-19,1
1,125	43,2	-19,4
1,1255	45,4	-20,6
1,126	47,6	-22,2
1,1265	49,6	-23,4
1,127	50,8	-24,3
1,1275	50,8	-24,8
1,128	49,5	-25,0
1,1285	46,8	-25,0
1,129	43,4	-24,7
1,1295	39,8	-24,5
1,13	36,6	-24,7
1,1305	34,5	-25,1
1,131	33,7	-25,7
1,1315	34,0	-26,6
1,132	34,9	-27,7
1,1325	36,1	-28,7
1,133	37,2	-28,9
1,1335	38,3	-28,1
1,134	39,0	-26,8
1,1345	39,1	-25,3
1,135	38,3	-24,3
1,1355	36,6	-23,8
1,136	33,9	-24,0
1,1365	30,4	-24,9
1,137	26,8	-26,3
1,1375	23,3	-27,7
1,138	20,3	-28,7
1,1385	18,1	-29,1
1,139	16,8	-28,9
1,1395	16,3	-28,5
1,14	16,0	-27,8
1,1405	15,7	-27,0
1,141	15,3	-26,4
1,1415	14,8	-26,5
1,142	14,0	-27,6
1,1425	12,8	-29,4
1,143	11,3	-31,4
1,1435	9,4	-33,2
1,144	7,3	-34,1
1,1445	5,1	-33,6
1,145	2,7	-32,2
1,1455	0,9	-30,1
1,146	0,3	-28,1
1,1465	1,3	-26,6
1,147	3,4	-26,0
1,1475	6,0	-25,8
1,148	8,7	-26,0
1,1485	11,5	-26,8
1,149	15,2	-27,8
1,1495	20,2	-28,5
1,15	25,9	-28,5
1,1505	31,4	-27,8
1,151	35,5	-26,9
1,1515	37,8	-26,3
1,152	38,9	-26,0
1,1525	39,7	-26,3
1,153	40,9	-27,0
1,1535	42,5	-28,0
1,154	43,4	-29,0
1,1545	43,2	-29,7
1,155	41,7	-29,8
1,1555	39,4	-29,3
1,156	36,6	-28,0
1,1565	33,0	-26,2
1,157	28,6	-24,2
1,1575	24,1	-22,9
1,158	20,2	-23,2
1,1585	17,4	-24,8
1,159	15,5	-27,4
1,1595	14,3	-30,1
1,16	13,7	-32,4
1,1605	13,8	-33,9
1,161	14,1	-34,1
1,1615	13,8	-32,9
1,162	12,9	-30,7
1,1625	12,0	-28,0
1,163	11,8	-25,6
1,1635	12,7	-24,4
1,164	14,2	-24,5
1,1645	15,9	-25,7
1,165	17,5	-27,3
1,1655	18,9	-28,7
1,166	20,7	-29,2
1,1665	23,2	-28,6
1,167	26,1	-27,2
1,1675	28,8	-25,9
1,168	31,0	-25,3
1,1685	32,8	-25,5
1,169	33,8	-26,0
1,1695	33,7	-26,9
1,17	31,6	-28,1
1,1705	27,6	-29,2
1,171	22,4	-29,8
1,1715	17,0	-29,8
1,172	12,4	-29,4
1,1725	8,7	-28,8
1,173	6,2	-28,2
1,1735	5,3	-27,4
1,174	6,7	-26,8
1,1745	10,1	-26,9
1,175	14,6	-27,9
1,1755	19,1	-29,5
1,176	23,1	-31,2
1,1765	26,6	-32,4
1,177	29,8	-33,0
1,1775	32,6	-33,0
1,178	34,5	-32,3
1,1785	34,8	-30,9
1,179	32,8	-29,3
1,1795	29,1	-27,8
1,18	24,6	-27,1
1,1805	20,4	-27,4
1,181	17,3	-28,4
1,1815	15,8	-29,7
1,182	15,7	-31,2
1,1825	16,5	-32,6
1,183	17,9	-33,1
1,1835	20,1	-32,5
1,184	22,8	-30,9
1,1845	25,4	-29,2
1,185	27,2	-28,1
1,1855	27,8	-28,1
1,186	27,3	-29,0
1,1865	26,0	-30,7
1,187	24,6	-32,6
1,1875	23,3	-34,8
1,188	22,2	-37,2
1,1885	21,3	-39,4
1,189	20,7	-41,0
1,1895	20,4	-41,6
1,19	20,2	-41,2
1,1905	19,8	-40,3
1,191	18,9	-39,7
1,1915	17,8	-39,8
1,192	17,0	-40,9
1,1925	16,9	-42,3
1,193	17,7	-43,9
1,1935	19,1	-45,2
1,194	20,9	-46,1
1,1945	23,0	-46,3
1,195	24,8	-45,9
1,1955	25,8	-45,0
1,196	25,0	-44,1
1,1965	22,1	-43,7
1,197	17,7	-44,0
1,1975	13,1	-44,8
1,198	9,7	-45,7
1,1985	8,0	-46,2
1,199	7,9	-45,8
1,1995	9,0	-44,2
1,2	10,8	-41,5
1,2005	13,2	-38,4
1,201	16,5	-35,8
1,2015	20,5	-34,0
1,202	24,4	-32,9
1,2025	26,9	-32,6
1,203	27,3	-32,8
1,2035	25,4	-33,1
1,204	22,1	-33,3
1,2045	17,9	-33,2
1,205	13,7	-33,0
1,2055	10,1	-32,8
1,206	8,0	-32,6
1,2065	8,0	-32,3
1,207	11,3	-31,9
1,2075	18,2	-31,5
1,208	27,8	-31,5
1,2085	37,5	-32,3
1,209	45,2	-33,8
1,2095	49,5	-35,5
1,21	50,9	-37,1
1,2105	50,4	-38,0
1,211	49,0	-38,0
1,2115	46,7	-37,1
1,212	43,6	-35,7
1,2125	39,9	-34,4
1,213	36,1	-33,5
1,2135	32,4	-33,3
1,214	29,0	-33,7
1,2145	26,4	-34,5
1,215	24,8	-35,8
1,2155	24,3	-37,1
1,216	24,0	-38,2
1,2165	22,8	-38,5
1,217	19,8	-38,0
1,2175	15,4	-36,9
1,218	10,9	-35,9
1,2185	8,0	-35,4
1,219	8,0	-35,7
1,2195	10,8	-36,7
1,22	14,8	-38,3
1,2205	18,7	-40,1
1,221	21,4	-41,5
1,2215	23,4	-42,0
1,222	25,1	-41,3
1,2225	26,8	-40,0
1,223	28,3	-38,5
1,2235	29,4	-37,0
1,224	30,0	-35,8
1,2245	30,2	-35,3
1,225	30,3	-35,6
1,2255	29,9	-36,5
1,226	28,5	-37,8
1,2265	25,8	-39,1
1,227	21,9	-40,2
1,2275	17,8	-40,8
1,228	14,7	-40,6
1,2285	13,4	-39,4
1,229	13,9	-37,7
1,2295	15,9	-36,3
1,23	19,0	-36,0
1,2305	22,7	-37,2
1,231	26,6	-39,5
1,2315	30,1	-42,1
1,232	33,1	-44,5
1,2325	35,6	-45,8
1,233	37,8	-45,7
1,2335	39,3	-44,4
1,234	39,9	-42,5
1,2345	39,6	-40,8
1,235	38,7	-39,7
1,2355	37,3	-39,7
1,236	35,7	-41,0
1,2365	33,2	-43,5
1,237	29,2	-46,7
1,2375	24,0	-49,9
1,238	18,4	-52,7
1,2385	14,1	-54,6
1,239	12,1	-55,5
1,2395	12,4	-55,5
1,24	14,2	-54,5
1,2405	16,2	-52,7
1,241	17,2	-50,8
1,2415	16,7	-49,7
1,242	15,1	-49,6
1,2425	13,3	-50,2
1,243	12,3	-51,0
1,2435	12,5	-51,6
1,244	14,0	-51,6
1,2445	15,8	-50,7
1,245	17,0	-48,9
1,2455	16,7	-46,6
1,246	15,0	-44,2
1,2465	12,6	-42,6
1,247	10,6	-42,2
1,2475	9,6	-42,5
1,248	9,5	-43,1
1,2485	9,8	-43,8
1,249	10,2	-44,3
1,2495	10,8	-44,3
1,25	11,4	-43,6
1,2505	11,9	-42,3
1,251	12,2	-40,9
1,2515	12,1	-39,8
1,252	12,0	-39,2
1,2525	12,2	-39,2
1,253	12,8	-39,8
1,2535	13,7	-40,6
1,254	15,1	-41,2
1,2545	17,0	-41,5
1,255	19,7	-41,5
1,2555	22,9	-41,3
1,256	26,1	-41,1
1,2565	28,4	-40,7
1,257	29,1	-40,2
1,2575	27,5	-39,8
1,258	23,9	-39,8
1,2585	19,2	-40,2
1,259	14,6	-41,0
1,2595	11,3	-42,0
1,26	10,3	-43,1
1,2605	11,6	-43,9
1,261	14,6	-44,3
1,2615	18,6	-43,9
1,262	22,9	-42,7
1,2625	26,6	-41,1
1,263	29,3	-39,7
1,2635	30,9	-39,2
1,264	31,4	-39,7
1,2645	30,6	-40,9
1,265	28,8	-42,8
1,2655	26,7	-44,8
1,266	24,7	-46,7
1,2665	23,1	-47,5
1,267	22,1	-47,0
1,2675	21,9	-45,8
1,268	22,9	-44,5
1,2685	24,9	-43,7
1,269	26,9	-43,8
1,2695	28,0	-45,2
1,27	28,1	-47,6
1,2705	27,9	-50,6
1,271	28,1	-53,3
1,2715	29,0	-54,9
1,272	30,1	-55,3
1,2725	31,0	-54,5
1,273	31,8	-52,8
1,2735	32,6	-50,7
1,274	34,0	-48,6
1,2745	35,7	-47,2
1,275	37,2	-46,9
1,2755	37,5	-47,5
1,276	36,1	-48,2
1,2765	32,8	-48,8
1,277	28,3	-48,9
1,2775	23,1	-48,5
1,278	18,1	-47,6
1,2785	14,4	-46,3
1,279	13,1	-45,0
1,2795	14,6	-43,9
1,28	18,2	-42,9
1,2805	22,9	-42,3
1,281	28,1	-42,0
1,2815	33,4	-42,7
1,282	39,0	-44,4
1,2825	44,8	-46,3
1,283	50,2	-47,5
1,2835	54,9	-47,7
1,284	58,8	-47,3
1,2845	61,6	-46,8
1,285	62,6	-46,6
1,2855	60,9	-46,5
1,286	56,3	-46,5
1,2865	49,8	-46,4
1,287	42,7	-46,6
1,2875	35,9	-46,9
1,288	29,4	-47,2
1,2885	22,2	-46,9
1,289	13,9	-46,0
1,2895	5,1	-44,8
1,29	-3,0	-43,5
1,2905	-9,1	-42,1
1,291	-12,8	-41,2
1,2915	-14,7	-41,1
1,292	-15,7	-42,1
1,2925	-16,5	-43,7
1,293	-16,9	-45,3
1,2935	-16,5	-46,3
1,294	-14,9	-46,4
1,2945	-11,6	-45,4
1,295	-6,1	-43,8
1,2955	1,1	-41,8
1,296	9,0	-39,9
1,2965	16,7	-38,6
1,297	23,4	-38,3
1,2975	28,4	-38,9
1,298	31,9	-40,3
1,2985	34,3	-42,2
1,299	35,6	-43,9
1,2995	35,8	-44,9
1,3	35,0	-44,8
1,3005	33,6	-43,6
1,301	31,9	-41,8
1,3015	30,5	-40,0
1,302	29,6	-38,9
1,3025	29,3	-38,7
1,303	29,3	-39,4
1,3035	29,5	-40,6
1,304	30,2	-41,8
1,3045	31,9	-42,8
1,305	34,3	-43,3
1,3055	36,5	-43,5
1,306	37,8	-43,7
1,3065	38,0	-43,7
1,307	38,8	-43,4
1,3075	41,8	-43,1
1,308	47,6	-43,3
1,3085	54,8	-44,2
1,309	60,8	-45,6
1,3095	64,2	-47,2
1,31	64,3	-48,6
1,3105	61,2	-49,5
1,311	55,8	-49,5
1,3115	49,0	-48,4
1,312	42,4	-46,5
1,3125	36,8	-44,3
1,313	32,4	-42,5
1,3135	28,8	-41,4
1,314	25,6	-41,0
1,3145	22,9	-41,2
1,315	20,8	-41,8
1,3155	19,0	-42,5
1,316	17,2	-42,8
1,3165	14,8	-42,4
1,317	11,3	-41,7
1,3175	7,1	-41,3
1,318	3,1	-41,6
1,3185	0,4	-42,4
1,319	-0,1	-43,4
1,3195	1,9	-44,5
1,32	5,7	-46,0
1,3205	10,3	-48,0
1,321	14,8	-50,3
1,3215	18,9	-52,3
1,322	23,0	-53,6
1,3225	27,3	-54,0
1,323	31,7	-53,8
1,3235	35,4	-52,9
1,324	38,1	-51,9
1,3245	39,3	-51,5
1,325	38,8	-52,2
1,3255	37,2	-53,9
1,326	34,9	-55,8
1,3265	32,8	-57,4
1,327	31,1	-58,3
1,3275	29,5	-58,2
1,328	27,8	-57,2
1,3285	25,8	-55,8
1,329	24,8	-54,5
1,3295	25,9	-53,6
1,33	29,3	-53,4
1,3305	33,8	-53,6
1,331	37,7	-54,4
1,3315	39,5	-55,6
1,332	38,8	-57,1
1,3325	36,0	-58,3
1,333	32,0	-58,8
1,3335	27,7	-58,2
1,334	23,5	-56,8
1,3345	19,6	-55,0
1,335	15,7	-53,3
1,3355	11,7	-52,2
1,336	7,4	-52,0
1,3365	3,2	-53,0
1,337	-0,5	-54,9
1,3375	-3,1	-57,3
1,338	-3,8	-59,6
1,3385	-2,5	-61,0
1,339	0,5	-61,7
1,3395	4,6	-61,6
1,34	8,6	-60,8
1,3405	11,8	-59,4
1,341	13,3	-58,1
1,3415	12,3	-57,7
1,342	9,1	-58,4
1,3425	4,4	-59,8
1,343	-0,4	-61,5
1,3435	-3,9	-62,9
1,344	-5,3	-63,6
1,3445	-4,4	-63,3
1,345	-1,8	-62,2
1,3455	1,7	-60,8
1,346	5,4	-59,5
1,3465	8,8	-58,6
1,347	11,8	-58,2
1,3475	14,6	-57,8
1,348	17,1	-57,6
1,3485	18,8	-57,6
1,349	19,8	-58,0
1,3495	20,2	-58,3
1,35	20,8	-57,8
1,3505	21,7	-56,6
1,351	22,3	-55,1
1,3515	22,0	-53,9
1,352	21,1	-53,6
1,3525	20,8	-54,1
1,353	22,0	-55,2
1,3535	24,5	-56,6
1,354	27,8	-58,1
1,3545	31,0	-59,1
1,355	33,7	-59,3
1,3555	35,5	-58,7
1,356	36,8	-57,5
1,3565	37,7	-56,3
1,357	38,5	-55,0
1,3575	39,0	-53,9
1,358	38,8	-53,4
1,3585	37,7	-53,8
1,359	35,9	-55,0
1,3595	34,5	-56,2
1,36	33,6	-57,1
1,3605	33,2	-57,3
1,361	32,8	-56,8
1,3615	32,3	-55,5
1,362	32,2	-53,8
1,3625	33,0	-52,4
1,363	34,6	-51,8
1,3635	36,3	-52,3
1,364	37,3	-53,8
1,3645	37,5	-55,7
1,365	37,1	-57,5
1,3655	36,0	-59,3
1,366	33,7	-60,7
1,3665	29,8	-61,4
1,367	24,2	-61,6
1,3675	18,0	-61,3
1,368	12,5	-60,8
1,3685	8,8	-60,3
1,369	7,4	-60,2
1,3695	8,1	-60,7
1,37	10,3	-61,9
1,3705	13,8	-63,5
1,371	18,3	-65,4
1,3715	23,6	-66,7
1,372	29,1	-67,1
1,3725	34,5	-66,6
1,373	39,8	-65,7
1,3735	45,2	-64,7
1,374	50,2	-63,8
1,3745	54,6	-63,4
1,375	58,5	-64,0
1,3755	61,7	-65,4
1,376	63,8	-67,1
1,3765	64,8	-68,5
1,377	64,8	-69,4
1,3775	64,2	-69,5
1,378	62,8	-68,6
1,3785	60,2	-66,4
1,379	56,2	-62,9
1,3795	51,3	-59,0
1,38	45,8	-55,8
1,3805	39,9	-54,3
1,381	34,3	-54,2
1,3815	29,6	-54,9
1,382	25,9	-56,1
1,3825	22,7	-57,3
1,383	18,8	-57,9
1,3835	14,3	-57,8
1,384	9,8	-56,9
1,3845	6,4	-56,2
1,385	4,6	-55,8
1,3855	4,1	-56,3
1,386	4,5	-57,5
1,3865	5,3	-59,3
1,387	6,2	-61,5
1,3875	6,6	-63,8
1,388	6,5	-65,9
1,3885	6,8	-67,7
1,389	8,1	-68,7
1,3895	10,5	-68,6
1,39	13,0	-67,8
1,3905	15,0	-66,3
1,391	16,9	-64,8
1,3915	19,8	-63,9
1,392	24,3	-63,8
1,3925	29,4	-63,9
1,393	34,1	-64,0
1,3935	37,0	-64,0
1,394	37,2	-63,8
1,3945	34,7	-63,3
1,395	30,5	-62,2
1,3955	26,4	-60,8
1,396	23,3	-59,4
1,3965	21,4	-58,5
1,397	19,8	-58,3
1,3975	17,9	-58,3
1,398	15,8	-58,6
1,3985	14,1	-59,3
1,399	12,8	-60,1
1,3995	12,0	-60,3
1,4	11,2	-59,7
1,4005	10,5	-58,4
1,401	10,3	-56,8
1,4015	10,6	-55,5
1,402	11,8	-54,4
1,4025	13,8	-53,7
1,403	16,7	-53,3
1,4035	19,9	-53,3
1,404	22,7	-53,6
1,4045	24,7	-53,9
1,405	25,7	-53,9
1,4055	25,9	-53,6
1,406	26,1	-52,8
1,4065	26,8	-51,5
1,407	28,3	-49,8
1,4075	30,0	-47,8
1,408	31,5	-46,4
1,4085	32,6	-45,9
1,409	33,4	-46,6
1,4095	34,4	-48,1
1,41	35,6	-49,9
1,4105	36,0	-51,5
1,411	34,8	-52,3
1,4115	32,0	-52,2
1,412	28,4	-51,6
1,4125	25,1	-50,7
1,413	22,7	-49,9
1,4135	21,0	-49,6
1,414	19,5	-49,9
1,4145	18,3	-50,9
1,415	17,4	-52,3
1,4155	17,1	-54,0
1,416	17,3	-55,8
1,4165	17,3	-57,2
1,417	17,0	-57,6
1,4175	16,4	-56,8
1,418	16,2	-55,2
1,4185	16,7	-53,0
1,419	18,1	-51,1
1,4195	20,1	-49,8
1,42	21,9	-49,8
1,4205	22,8	-50,8
1,421	22,3	-52,3
1,4215	20,7	-53,8
1,422	18,4	-54,8
1,4225	15,9	-55,0
1,423	13,5	-54,7
1,4235	11,3	-54,0
1,424	9,8	-53,2
1,4245	9,2	-52,5
1,425	9,5	-52,3
1,4255	10,4	-52,9
1,426	11,6	-54,3
1,4265	12,9	-56,1
1,427	14,1	-57,7
1,4275	15,4	-58,5
1,428	16,9	-58,7
1,4285	18,4	-58,1
1,429	19,9	-57,1
1,4295	20,8	-56,1
1,43	20,7	-55,4
1,4305	19,4	-55,2
1,431	17,8	-55,3
1,4315	16,9	-55,8
1,432	16,8	-56,9
1,4325	17,5	-58,2
1,433	18,6	-58,8
1,4335	19,8	-57,9
1,434	20,6	-55,9
1,4345	21,0	-53,7
1,435	21,1	-52,0
1,4355	21,6	-51,4
1,436	22,8	-51,9
1,4365	24,6	-53,6
1,437	26,7	-56,2
1,4375	28,7	-59,1
1,438	30,1	-61,5
1,4385	31,0	-62,9
1,439	32,4	-63,2
1,4395	35,1	-62,6
1,44	39,3	-61,7
1,4405	43,8	-61,0
1,441	47,1	-60,8
1,4415	47,9	-61,4
1,442	46,8	-63,0
1,4425	45,1	-65,1
1,443	43,6	-67,1
1,4435	42,1	-68,6
1,444	40,0	-69,3
1,4445	37,2	-68,9
1,445	34,2	-67,6
1,4455	31,8	-65,7
1,446	30,1	-63,6
1,4465	28,5	-61,8
1,447	26,8	-60,8
1,4475	25,2	-60,4
1,448	24,0	-60,7
1,4485	22,9	-61,4
1,449	20,7	-62,5
1,4495	16,8	-63,2
1,45	11,5	-62,9
1,4505	6,3	-61,7
1,451	2,3	-60,2
1,4515	-0,4	-58,6
1,452	-1,9	-57,3
1,4525	-2,8	-56,7
1,453	-2,9	-57,0
1,4535	-1,8	-58,5
1,454	0,8	-60,7
1,4545	5,0	-63,0
1,455	10,3	-64,5
1,4555	15,8	-64,9
1,456	20,6	-64,3
1,4565	24,5	-63,2
1,457	27,3	-62,2
1,4575	29,1	-61,7
1,458	29,8	-62,2
1,4585	29,7	-63,6
1,459	28,9	-65,6
1,4595	27,9	-67,8
1,46	26,8	-70,0
1,4605	25,8	-71,6
1,461	25,1	-72,2
1,4615	25,1	-71,6
1,462	26,1	-69,7
1,4625	28,0	-67,0
1,463	30,3	-64,3
1,4635	32,2	-62,3
1,464	33,3	-61,7
1,4645	33,7	-62,2
1,465	33,9	-63,4
1,4655	34,0	-65,1
1,466	34,1	-66,5
1,4665	34,1	-66,9
1,467	33,9	-66,2
1,4675	33,5	-64,6
1,468	33,0	-62,9
1,4685	32,9	-61,7
1,469	33,1	-61,3
1,4695	33,2	-62,3
1,47	32,8	-64,4
1,4705	31,6	-67,0
1,471	29,8	-69,3
1,4715	27,9	-70,5
1,472	26,7	-70,3
1,4725	26,7	-69,3
1,473	27,9	-68,0
1,4735	29,8	-66,8
1,474	31,8	-65,8
1,4745	33,0	-65,3
1,475	32,8	-65,7
1,4755	31,3	-66,9
1,476	29,5	-68,2
1,4765	28,8	-69,2
1,477	30,1	-69,6
1,4775	33,0	-69,9
1,478	36,3	-70,1
1,4785	38,9	-69,9
1,479	40,1	-69,1
1,4795	39,6	-67,6
1,48	37,7	-65,9
1,4805	35,0	-64,5
1,481	32,4	-63,7
1,4815	30,3	-63,5
1,482	28,3	-63,8
1,4825	26,3	-64,3
1,483	24,6	-64,4
1,4835	23,3	-63,8
1,484	22,4	-62,5
1,4845	21,4	-60,8
1,485	19,9	-58,9
1,4855	17,7	-57,6
1,486	15,1	-57,4
1,4865	12,6	-58,2
1,487	10,9	-59,5
1,4875	10,6	-60,7
1,488	11,6	-61,2
1,4885	12,9	-60,9
1,489	13,4	-60,3
1,4895	12,7	-59,7
1,49	11,4	-59,2
1,4905	10,7	-58,6
1,491	11,7	-58,0
1,4915	15,3	-58,2
1,492	21,4	-59,5
1,4925	28,6	-61,6
1,493	35,1	-63,7
1,4935	39,4	-65,2
1,494	41,1	-66,1
1,4945	40,1	-66,2
1,495	36,8	-65,7
1,4955	32,5	-64,8
1,496	28,6	-64,1
1,4965	25,8	-63,7
1,497	24,2	-63,9
1,4975	23,3	-64,4
1,498	22,8	-64,9
1,4985	22,2	-65,4
1,499	21,7	-65,8
1,4995	21,3	-65,6
1,5	21,4	-64,4
1,5005	22,0	-62,5
1,501	22,5	-60,2
1,5015	22,3	-58,0
1,502	21,3	-56,5
1,5025	20,3	-55,8
1,503	19,9	-56,3
1,5035	20,6	-57,8
1,504	22,0	-60,2
1,5045	23,8	-62,6
1,505	26,3	-64,3
1,5055	29,6	-65,0
1,506	33,2	-65,0
1,5065	36,4	-64,7
1,507	38,9	-64,0
1,5075	41,0	-63,2
1,508	43,6	-62,6
1,5085	46,8	-62,6
1,509	49,9	-63,4
1,5095	51,4	-64,6
1,51	50,4	-65,5
1,5105	47,2	-66,0
1,511	43,0	-65,8
1,5115	39,3	-64,9
1,512	37,0	-63,5
1,5125	36,1	-62,2
1,513	36,3	-61,3
1,5135	36,1	-61,0
1,514	34,1	-61,2
1,5145	30,0	-61,7
1,515	24,8	-62,3
1,5155	20,1	-63,2
1,516	17,3	-64,2
1,5165	16,4	-64,9
1,517	15,9	-65,0
1,5175	14,4	-64,5
1,518	11,8	-63,6
1,5185	9,4	-62,4
1,519	8,6	-61,2
1,5195	9,6	-60,6
1,52	11,3	-60,8
1,5205	12,2	-61,9
1,521	11,5	-63,0
1,5215	9,4	-63,6
1,522	6,9	-63,4
1,5225	5,2	-63,1
1,523	4,8	-63,0
1,5235	5,7	-63,2
1,524	7,3	-63,7
1,5245	9,1	-64,5
1,525	10,6	-66,0
1,5255	12,0	-67,8
1,526	13,6	-69,2
1,5265	15,4	-69,6
1,527	17,3	-68,9
1,5275	19,0	-67,5
1,528	20,4	-65,5
1,5285	21,0	-63,2
1,529	19,7	-60,8
1,5295	16,0	-58,9
1,53	10,5	-57,9
1,5305	4,8	-58,0
1,531	0,6	-58,8
1,5315	-1,1	-60,1
1,532	0,1	-61,9
1,5325	3,9	-64,3
1,533	9,9	-66,6
1,5335	16,9	-68,2
1,534	23,6	-69,1
1,5345	28,9	-69,3
1,535	32,5	-69,3
1,5355	35,0	-69,3
1,536	37,4	-69,3
1,5365	40,3	-69,6
1,537	43,8	-69,9
1,5375	47,0	-70,5
1,538	49,0	-71,2
1,5385	49,3	-71,9
1,539	48,4	-72,5
1,5395	47,3	-72,8
1,54	46,8	-72,5
1,5405	46,7	-71,5
1,541	46,6	-69,8
1,5415	46,1	-67,9
1,542	46,0	-66,2
1,5425	47,1	-65,1
1,543	49,9	-65,3
1,5435	53,5	-66,9
1,544	56,9	-69,1
1,5445	59,3	-70,8
1,545	60,4	-71,4
1,5455	60,0	-71,0
1,546	58,3	-70,1
1,5465	55,5	-69,4
1,547	51,5	-69,3
1,5475	46,1	-69,5
1,548	39,4	-70,0
1,5485	32,1	-70,7
1,549	25,0	-71,5
1,5495	18,8	-71,8
1,55	13,5	-71,3
1,5505	8,9	-69,9
1,551	5,4	-68,4
1,5515	3,0	-67,2
1,552	1,9	-66,5
1,5525	2,0	-66,3
1,553	3,0	-66,8
1,5535	4,9	-67,7
1,554	7,3	-68,6
1,5545	9,9	-69,2
1,555	11,9	-69,2
1,5555	13,1	-68,8
1,556	13,9	-68,0
1,5565	14,9	-67,0
1,557	16,5	-65,8
1,5575	18,4	-64,2
1,558	20,2	-62,9
1,5585	21,4	-62,3
1,559	22,0	-62,3
1,5595	22,3	-62,7
1,56	22,7	-63,0
1,5605	23,5	-62,8
1,561	24,6	-62,1
1,5615	25,4	-60,7
1,562	25,5	-58,8
1,5625	24,7	-56,8
1,563	23,4	-55,1
1,5635	22,5	-54,2
1,564	22,4	-53,9
1,5645	23,2	-54,3
1,565	24,2	-55,3
1,5655	25,0	-56,6
1,566	24,9	-57,9
1,5665	23,2	-58,3
1,567	20,1	-57,6
1,5675	16,6	-56,3
1,568	14,1	-54,8
1,5685	13,1	-53,5
1,569	13,6	-52,5
1,5695	15,7	-52,4
1,57	19,5	-53,4
1,5705	24,5	-55,1
1,571	29,7	-56,8
1,5715	34,3	-57,9
1,572	38,2	-57,9
1,5725	41,5	-56,7
1,573	43,6	-54,9
1,5735	44,4	-52,9
1,574	44,1	-51,3
1,5745	42,9	-50,3
1,575	40,4	-50,4
1,5755	36,2	-51,8
1,576	30,0	-54,3
1,5765	23,1	-56,9
1,577	17,0	-58,8
1,5775	13,1	-59,3
1,578	12,1	-58,1
1,5785	13,6	-55,8
1,579	16,8	-52,8
1,5795	20,2	-49,9
1,58	22,7	-47,8
1,5805	23,6	-46,6
1,581	23,4	-46,2
1,5815	22,8	-46,5
1,582	22,1	-47,4
1,5825	21,1	-48,5
1,583	20,1	-48,9
1,5835	19,3	-47,9
1,584	19,7	-45,9
1,5845	22,2	-43,8
1,585	27,5	-42,6
1,5855	34,6	-42,5
1,586	41,7	-43,3
1,5865	46,9	-44,8
1,587	50,0	-46,4
1,5875	51,4	-48,0
1,588	51,7	-49,2
1,5885	51,2	-49,9
1,589	49,9	-50,1
1,5895	47,7	-49,8
1,59	44,0	-48,9
1,5905	38,4	-47,4
1,591	31,9	-45,6
1,5915	25,6	-44,0
1,592	20,2	-43,1
1,5925	15,7	-43,1
1,593	11,7	-43,8
1,5935	8,0	-44,9
1,594	5,0	-45,8
1,5945	3,3	-46,1
1,595	2,8	-45,2
1,5955	3,3	-43,3
1,596	4,0	-40,5
1,5965	5,0	-37,8
1,597	6,9	-36,0
1,5975	10,2	-35,5
1,598	14,6	-36,3
1,5985	18,9	-37,7
1,599	22,2	-39,2
1,5995	24,4	-40,1
1,6	25,9	-40,3
1,6005	27,1	-39,4
1,601	28,5	-38,0
1,6015	30,0	-36,4
1,602	31,7	-35,1
1,6025	33,3	-34,5
1,603	34,1	-34,8
1,6035	34,1	-36,1
1,604	33,4	-38,1
1,6045	32,6	-40,3
1,605	31,9	-42,1
1,6055	31,1	-43,1
1,606	30,0	-43,3
1,6065	28,7	-43,1
1,607	27,2	-42,6
1,6075	26,1	-41,8
1,608	25,7	-40,9
1,6085	25,9	-40,8
1,609	26,3	-41,8
1,6095	26,5	-43,5
1,61	26,1	-45,2
1,6105	25,6	-46,4
1,611	25,1	-47,1
1,6115	24,6	-47,3
1,612	23,5	-46,6
1,6125	20,6	-45,2
1,613	15,8	-43,5
1,6135	10,0	-42,1
1,614	4,7	-41,3
1,6145	1,4	-41,3
1,615	0,8	-42,0
1,6155	2,8	-43,5
1,616	6,8	-45,4
1,6165	12,1	-47,2
1,617	17,9	-48,0
1,6175	23,4	-48,0
1,618	27,8	-47,3
1,6185	30,8	-46,5
1,619	32,8	-45,9
1,6195	34,2	-45,6
1,62	35,7	-45,6
1,6205	37,5	-45,8
1,621	39,5	-45,9
1,6215	41,4	-45,8
1,622	43,1	-45,3
1,6225	44,0	-44,1
1,623	43,8	-42,5
1,6235	42,5	-40,5
1,624	40,4	-38,3
1,6245	38,1	-36,4
1,625	35,8	-35,4
1,6255	34,0	-35,7
1,626	32,9	-37,2
1,6265	32,2	-39,4
1,627	31,1	-41,6
1,6275	29,3	-43,6
1,628	27,1	-44,8
1,6285	25,1	-45,1
1,629	23,5	-44,6
1,6295	22,3	-43,6
1,63	21,5	-42,7
1,6305	21,4	-42,2
1,631	21,9	-42,0
1,6315	22,9	-42,1
1,632	23,9	-42,3
1,6325	24,5	-42,6
1,633	24,6	-42,6
1,6335	24,4	-41,9
1,634	24,2	-40,6
1,6345	24,0	-39,3
1,635	23,6	-38,3
1,6355	23,2	-37,6
1,636	22,6	-37,3
1,6365	21,6	-37,4
1,637	19,7	-38,1
1,6375	17,0	-39,0
1,638	14,2	-39,7
1,6385	11,7	-40,1
1,639	9,9	-39,9
1,6395	8,8	-39,1
1,64	8,6	-38,1
1,6405	9,1	-37,2
1,641	10,2	-36,6
1,6415	11,7	-36,5
1,642	13,3	-36,8
1,6425	14,6	-37,3
1,643	15,2	-38,0
1,6435	15,8	-38,7
1,644	17,3	-39,3
1,6445	20,1	-39,4
1,645	23,6	-38,3
1,6455	26,7	-36,3
1,646	29,0	-34,0
1,6465	30,7	-31,8
1,647	31,9	-30,0
1,6475	32,8	-28,6
1,648	33,2	-27,5
1,6485	32,9	-26,8
1,649	31,7	-26,9
1,6495	29,5	-27,6
1,65	26,7	-28,3
1,6505	23,7	-28,6
1,651	21,1	-28,7
1,6515	19,4	-29,1
1,652	18,5	-29,7
1,6525	17,7	-30,4
1,653	16,5	-31,1
1,6535	14,7	-31,9
1,654	13,0	-32,8
1,6545	11,8	-33,4
1,655	10,7	-33,3
1,6555	8,8	-32,1
1,656	5,9	-30,2
1,6565	3,1	-28,3
1,657	1,6	-26,6
1,6575	2,2	-25,3
1,658	4,8	-24,6
1,6585	8,7	-24,5
1,659	13,5	-25,3
1,6595	19,3	-26,7
1,66	25,7	-28,1
1,6605	32,1	-29,1
1,661	37,4	-29,6
1,6615	40,7	-29,3
1,662	41,8	-28,2
1,6625	40,8	-26,3
1,663	38,4	-24,2
1,6635	35,4	-22,7
1,664	32,3	-22,1
1,6645	29,7	-22,5
1,665	28,6	-23,6
1,6655	30,0	-24,9
1,666	33,6	-26,5
1,6665	37,8	-27,5
1,667	41,2	-27,3
1,6675	42,8	-25,8
1,668	42,9	-23,7
1,6685	42,0	-21,7
1,669	40,8	-20,5
1,6695	39,6	-20,4
1,67	38,6	-21,6
1,6705	37,3	-23,7
1,671	35,8	-26,0
1,6715	34,5	-27,7
1,672	33,8	-28,2
1,6725	33,5	-27,7
1,673	33,0	-26,6
1,6735	31,6	-24,9
1,674	28,7	-23,0
1,6745	24,0	-21,4
1,675	17,6	-21,1
1,6755	10,9	-22,2
1,676	5,9	-24,0
1,6765	3,9	-25,6
1,677	5,3	-26,2
1,6775	9,1	-25,9
1,678	14,2	-25,0
1,6785	20,0	-23,8
1,679	26,6	-22,3
1,6795	34,3	-20,6
1,68	42,3	-19,2
1,6805	49,7	-18,6
1,681	55,8	-19,0
1,6815	60,6	-20,1
1,682	63,2	-21,7
1,6825	62,0	-23,3
1,683	56,1	-24,6
1,6835	45,9	-25,1
1,684	33,0	-24,8
1,6845	19,4	-24,3
1,685	6,9	-23,9
1,6855	-2,8	-24,1
1,686	-8,5	-25,1
1,6865	-10,3	-26,7
1,687	-9,4	-28,5
1,6875	-7,2	-30,1
1,688	-4,7	-30,9
1,6885	-1,9	-30,6
1,689	0,8	-29,5
1,6895	3,7	-28,2
1,69	6,7	-27,1
1,6905	10,3	-25,8
1,691	15,0	-24,3
1,6915	20,4	-23,4
1,692	25,5	-23,4
1,6925	29,3	-24,1
1,693	31,4	-25,1
1,6935	32,5	-25,7
1,694	32,8	-25,9
1,6945	32,6	-25,7
1,695	32,1	-25,1
1,6955	31,1	-24,3
1,696	30,2	-23,3
1,6965	29,4	-22,3
1,697	29,0	-21,7
1,6975	28,8	-21,5
1,698	28,4	-21,8
1,6985	27,8	-22,5
1,699	27,1	-23,5
1,6995	26,4	-24,3
1,7	25,8	-24,1
1,7005	24,5	-22,8
1,701	22,1	-21,0
1,7015	19,0	-19,1
1,702	16,4	-18,0
1,7025	15,3	-17,9
1,703	15,6	-19,1
1,7035	16,8	-21,3
1,704	18,6	-24,0
1,7045	20,6	-26,8
1,705	22,5	-29,1
1,7055	24,4	-30,4
1,706	26,3	-30,7
1,7065	28,2	-30,4
1,707	29,6	-30,0
1,7075	30,2	-29,6
1,708	30,0	-29,3
1,7085	29,4	-29,3
1,709	28,8	-30,0
1,7095	28,1	-31,1
1,71	27,3	-32,3
1,7105	26,3	-33,3
1,711	25,5	-33,8
1,7115	24,8	-33,7
1,712	24,3	-32,9
1,7125	24,1	-31,5
1,713	24,0	-30,1
1,7135	23,8	-29,1
1,714	23,5	-28,7
1,7145	23,2	-28,8
1,715	22,8	-29,2
1,7155	22,3	-29,6
1,716	21,8	-30,0
1,7165	21,6	-30,2
1,717	22,7	-29,8
1,7175	25,3	-28,7
1,718	29,3	-27,1
1,7185	33,8	-25,4
1,719	37,9	-24,3
1,7195	41,0	-24,2
1,72	42,5	-25,2
1,7205	42,3	-27,1
1,721	40,5	-29,3
1,7215	37,7	-31,2
1,722	34,5	-32,0
1,7225	31,0	-31,8
1,723	26,8	-30,8
1,7235	21,9	-29,3
1,724	16,8	-27,2
1,7245	11,6	-25,3
1,725	6,5	-24,4
1,7255	1,2	-25,0
1,726	-3,9	-26,6
1,7265	-7,9	-28,3
1,727	-10,0	-29,4
1,7275	-10,1	-29,8
1,728	-8,3	-29,6
1,7285	-5,7	-28,8
1,729	-2,5	-27,6
1,7295	1,2	-26,1
1,73	5,8	-24,6
1,7305	11,3	-23,3
1,731	17,2	-22,7
1,7315	22,8	-22,8
1,732	28,0	-23,5
1,7325	32,8	-24,3
1,733	37,0	-24,9
1,7335	40,3	-24,7
1,734	42,6	-23,6
1,7345	44,0	-22,0
1,735	45,2	-20,6
1,7355	46,5	-19,8
1,736	47,7	-19,7
1,7365	48,1	-20,4
1,737	47,3	-21,6
1,7375	45,8	-22,8
1,738	44,1	-23,6
1,7385	43,0	-23,5
1,739	42,3	-22,4
1,7395	41,7	-20,4
1,74	40,8	-18,2
1,7405	39,8	-16,0
1,741	39,0	-14,5
1,7415	38,5	-14,1
1,742	37,8	-15,3
1,7425	36,8	-17,4
1,743	35,2	-19,9
1,7435	33,5	-22,0
1,744	32,1	-23,6
1,7445	31,3	-24,5
1,745	31,5	-24,6
1,7455	32,3	-23,9
1,746	34,0	-22,4
1,7465	36,6	-20,8
1,747	39,9	-19,3
1,7475	42,8	-18,2
1,748	44,0	-17,4
1,7485	43,2	-17,2
1,749	40,4	-17,6
1,7495	36,2	-18,3
1,75	31,3	-19,0
1,7505	27,0	-19,4
1,751	24,1	-19,8
1,7515	22,8	-20,4
1,752	22,5	-21,0
1,7525	22,6	-21,7
1,753	22,3	-22,4
1,7535	21,6	-23,4
1,754	20,8	-24,7
1,7545	20,2	-26,2
1,755	19,7	-27,6
1,7555	19,3	-28,5
1,756	19,3	-28,5
1,7565	19,9	-27,8
1,757	21,4	-26,3
1,7575	23,1	-24,3
1,758	24,7	-22,3
1,7585	26,0	-21,3
1,759	27,1	-21,7
1,7595	28,0	-23,1
1,76	28,8	-25,0
1,7605	29,5	-26,6
1,761	29,5	-27,5
1,7615	28,5	-27,3
1,762	26,6	-26,1
1,7625	24,6	-24,0
1,763	23,3	-21,6
1,7635	22,7	-19,4
1,764	22,2	-17,7
1,7645	20,3	-16,4
1,765	15,8	-15,8
1,7655	9,5	-15,9
1,766	3,9	-16,5
1,7665	1,9	-17,1
1,767	4,6	-17,1
1,7675	10,8	-16,7
1,768	18,7	-15,9
1,7685	27,6	-15,1
1,769	37,0	-14,4
1,7695	46,2	-14,1
1,77	53,9	-14,3
1,7705	59,6	-15,4
1,771	63,5	-17,3
1,7715	66,1	-19,3
1,772	67,2	-20,5
1,7725	65,8	-20,6
1,773	60,9	-19,6
1,7735	52,3	-17,8
1,774	41,0	-15,6
1,7745	29,0	-13,3
1,775	18,1	-11,6
1,7755	9,3	-10,7
1,776	2,8	-10,5
1,7765	-1,7	-10,7
1,777	-4,0	-11,0
1,7775	-4,0	-11,3
1,778	-1,6	-11,3
1,7785	2,4	-10,9
1,779	6,2	-9,8
1,7795	9,1	-8,2
1,78	11,2	-6,7
1,7805	13,1	-5,9
1,781	14,6	-6,0
1,7815	15,1	-7,3
1,782	14,4	-9,6
1,7825	13,6	-12,5
1,783	13,7	-15,1
1,7835	15,2	-16,3
1,784	18,1	-15,8
1,7845	21,8	-14,4
1,785	25,5	-12,7
1,7855	28,7	-11,4
1,786	31,1	-10,8
1,7865	32,7	-11,0
1,787	33,6	-11,7
1,7875	34,0	-12,6
1,788	33,8	-13,2
1,7885	33,3	-13,1
1,789	32,7	-12,6
1,7895	32,6	-11,8
1,79	32,8	-10,9
1,7905	33,6	-10,0
1,791	34,7	-9,1
1,7915	36,3	-8,8
1,792	38,5	-9,6
1,7925	41,4	-11,3
1,793	44,9	-13,3
1,7935	47,9	-14,9
1,794	49,2	-15,7
1,7945	48,1	-15,3
1,795	44,8	-14,3
1,7955	39,9	-13,0
1,796	34,3	-11,5
1,7965	28,4	-10,2
1,797	22,4	-9,1
1,7975	17,2	-8,6
1,798	13,3	-8,8
1,7985	11,4	-10,0
1,799	11,5	-11,8
1,7995	13,1	-13,2
1,8	15,6	-13,3
1,8005	18,3	-11,8
1,801	20,0	-9,3
1,8015	19,9	-6,8
1,802	18,2	-5,3
1,8025	15,9	-5,4
1,803	14,8	-7,2
1,8035	15,3	-9,9
1,804	17,3	-12,7
1,8045	19,9	-15,2
1,805	22,1	-16,8
1,8055	23,5	-17,5
1,806	24,4	-17,1
1,8065	25,3	-15,6
1,807	26,1	-13,5
1,8075	27,0	-11,3
1,808	27,8	-9,5
1,8085	28,6	-8,9
1,809	29,1	-9,7
1,8095	29,1	-11,3
1,81	28,3	-13,3
1,8105	26,8	-14,8
1,811	25,2	-15,7
1,8115	23,7	-15,8
1,812	22,7	-15,1
1,8125	22,6	-13,7
1,813	23,6	-11,9
1,8135	25,9	-10,4
1,814	29,0	-9,7
1,8145	32,7	-9,7
1,815	36,0	-10,1
1,8155	38,5	-10,8
1,816	39,5	-11,5
1,8165	38,7	-11,7
1,817	36,5	-10,9
1,8175	34,0	-9,2
1,818	32,1	-7,2
1,8185	31,3	-5,3
1,819	31,4	-3,8
1,8195	31,7	-3,0
1,82	31,9	-3,0
1,8205	31,5	-3,7
1,821	30,9	-4,7
1,8215	30,5	-5,8
1,822	31,0	-6,6
1,8225	32,7	-6,9
1,823	34,8	-6,7
1,8235	36,8	-5,8
1,824	38,3	-4,3
1,8245	38,8	-2,9
1,825	38,1	-2,1
1,8255	35,8	-2,4
1,826	32,6	-3,8
1,8265	29,7	-5,5
1,827	27,8	-7,3
1,8275	27,1	-8,9
1,828	27,8	-9,8
1,8285	30,2	-9,7
1,829	33,4	-8,8
1,8295	36,8	-7,5
1,83	39,3	-6,4
1,8305	40,9	-6,1
1,831	41,3	-6,4
1,8315	39,8	-7,2
1,832	35,7	-8,3
1,8325	29,8	-9,6
1,833	23,7	-10,8
1,8335	19,5	-11,3
1,834	17,9	-10,5
1,8345	18,0	-8,6
1,835	18,7	-6,0
1,8355	19,5	-3,8
1,836	20,7	-2,4
1,8365	22,7	-2,3
1,837	25,2	-3,2
1,8375	28,0	-4,6
1,838	31,2	-6,1
1,8385	35,3	-7,1
1,839	40,1	-7,2
1,8395	44,4	-6,3
1,84	47,0	-4,8
1,8405	47,1	-2,7
1,841	45,2	-0,4
1,8415	42,3	1,4
1,842	39,3	2,0
1,8425	37,4	1,5
1,843	37,0	0,4
1,8435	38,1	-0,6
1,844	39,6	-1,4
1,8445	40,7	-1,9
1,845	40,4	-2,1
1,8455	38,8	-1,9
1,846	36,1	-1,4
1,8465	32,5	-0,9
1,847	28,3	-0,6
1,8475	24,2	-0,8
1,848	20,8	-1,4
1,8485	18,8	-2,3
1,849	18,8	-3,4
1,8495	21,2	-4,2
1,85	25,8	-4,3
1,8505	31,5	-3,4
1,851	36,7	-2,1
1,8515	40,2	-1,0
1,852	41,6	-0,4
1,8525	41,1	-0,5
1,853	38,9	-1,2
1,8535	35,2	-2,4
1,854	30,3	-4,1
1,8545	25,0	-5,8
1,855	19,7	-7,4
1,8555	14,6	-8,5
1,856	9,7	-8,9
1,8565	5,5	-8,8
1,857	2,3	-8,1
1,8575	0,6	-6,9
1,858	0,2	-5,7
1,8585	0,8	-5,0
1,859	2,2	-5,2
1,8595	4,4	-6,1
1,86	7,5	-7,2
1,8605	11,5	-8,2
1,861	16,2	-8,6
1,8615	21,5	-8,0
1,862	27,2	-6,2
1,8625	32,9	-3,3
1,863	37,8	-0,2
1,8635	40,8	2,5
1,864	41,3	4,1
1,8645	39,3	4,8
1,865	35,4	4,8
1,8655	31,1	4,3
1,866	28,3	3,6
1,8665	28,4	2,9
1,867	31,6	2,7
1,8675	36,5	3,2
1,868	40,8	3,9
1,8685	43,5	4,5
1,869	44,6	5,1
1,8695	44,9	5,4
1,87	44,9	5,2
1,8705	44,9	4,1
1,871	44,6	2,2
1,8715	43,6	0,0
1,872	41,6	-1,8
1,8725	38,7	-3,1
1,873	34,6	-3,5
1,8735	29,4	-3,2
1,874	23,1	-2,0
1,8745	15,9	-0,2
1,875	9,2	1,6
1,8755	4,3	2,9
1,876	2,1	3,6
1,8765	2,7	4,2
1,877	5,3	4,5
1,8775	8,9	4,6
1,878	12,7	4,5
1,8785	16,0	4,3
1,879	18,2	4,4
1,8795	19,2	5,0
1,88	19,5	6,0
1,8805	20,2	7,1
1,881	22,0	7,7
1,8815	25,2	7,8
1,882	29,3	7,2
1,8825	33,8	6,0
1,883	37,9	4,5
1,8835	41,3	3,4
1,884	44,0	3,1
1,8845	46,0	3,5
1,885	47,8	4,3
1,8855	49,4	5,0
1,886	51,0	5,4
1,8865	51,9	5,4
1,887	51,9	5,2
1,8875	51,0	4,8
1,888	49,8	4,1
1,8885	48,9	3,3
1,889	48,0	2,6
1,8895	46,9	2,7
1,89	45,7	3,5
1,8905	45,0	5,1
1,891	45,2	7,1
1,8915	45,9	8,4
1,892	46,6	8,6
1,8925	47,0	7,6
1,893	46,8	5,9
1,8935	45,2	4,0
1,894	41,8	2,1
1,8945	36,7	0,3
1,895	30,7	-0,7
1,8955	24,5	-0,6
1,896	18,2	0,9
1,8965	11,7	3,0
1,897	5,4	4,5
1,8975	0,3	4,8
1,898	-2,7	3,6
1,8985	-3,6	1,4
1,899	-2,6	-1,4
1,8995	-0,2	-4,2
1,9	3,2	-6,4
1,9005	7,0	-7,5
1,901	10,3	-7,9
1,9015	13,3	-7,8
1,902	16,2	-7,5
1,9025	19,4	-7,5
1,903	22,9	-7,8
1,9035	26,4	-8,8
1,904	29,4	-10,4
1,9045	31,5	-12,4
1,905	32,6	-14,1
1,9055	33,3	-15,2
1,906	33,7	-15,5
1,9065	33,7	-15,0
1,907	33,1	-13,8
1,9075	31,7	-12,2
1,908	29,6	-10,9
1,9085	26,9	-10,4
1,909	24,2	-10,8
1,9095	21,6	-11,5
1,91	19,2	-12,1
1,9105	16,8	-12,1
1,911	14,3	-11,3
1,9115	12,8	-9,9
1,912	13,3	-8,1
1,9125	16,8	-6,4
1,913	23,2	-5,0
1,9135	30,9	-3,9
1,914	38,0	-3,3
1,9145	42,1	-2,9
1,915	41,7	-2,8
1,9155	37,1	-3,1
1,916	29,8	-3,8
1,9165	22,3	-4,3
1,917	16,4	-3,8
1,9175	12,6	-2,2
1,918	10,8	0,1
1,9185	10,8	2,2
1,919	12,7	4,0
1,9195	16,5	5,1
1,92	22,0	5,4
1,9205	28,6	4,7
1,921	35,3	3,2
1,9215	41,1	1,5
1,922	45,5	0,6
1,9225	48,2	1,1
1,923	48,9	3,0
1,9235	47,8	5,8
1,924	45,6	8,7
1,9245	43,0	11,1
1,925	41,1	12,7
1,9255	40,2	13,1
1,926	39,9	12,5
1,9265	39,6	11,5
1,927	38,8	10,7
1,9275	37,5	10,6
1,928	36,0	11,1
1,9285	34,7	12,3
1,929	33,6	14,0
1,9295	32,3	15,8
1,93	30,7	17,2
1,9305	29,1	17,8
1,931	28,4	17,6
1,9315	29,0	16,9
1,932	30,5	16,0
1,9325	32,0	14,9
1,933	33,2	14,1
1,9335	33,9	13,9
1,934	34,5	14,6
1,9345	35,4	15,6
1,935	36,8	16,6
1,9355	38,4	17,4
1,936	40,3	17,8
1,9365	42,1	17,6
1,937	43,8	16,5
1,9375	45,4	14,6
1,938	46,8	12,4
1,9385	47,2	10,6
1,939	46,3	9,7
1,9395	44,2	9,8
1,94	41,4	10,4
1,9405	38,4	11,3
1,941	35,5	12,5
1,9415	33,2	13,7
1,942	30,7	14,7
1,9425	26,7	15,3
1,943	20,2	15,6
1,9435	11,9	15,3
1,944	3,8	14,5
1,9445	-2,5	13,5
1,945	-5,9	12,9
1,9455	-6,0	13,0
1,946	-3,2	13,9
1,9465	1,4	15,1
1,947	6,8	15,9
1,9475	13,0	16,2
1,948	20,9	15,9
1,9485	31,0	15,2
1,949	41,8	14,2
1,9495	51,2	13,0
1,95	57,4	12,2
1,9505	60,0	12,3
1,951	59,1	13,6
1,9515	55,2	15,5
1,952	49,0	17,2
1,9525	41,6	18,3
1,953	34,2	18,4
1,9535	27,8	17,9
1,954	22,8	16,9
1,9545	19,1	15,8
1,955	16,0	14,9
1,9555	13,1	14,5
1,956	10,8	14,9
1,9565	9,8	16,0
1,957	10,8	17,7
1,9575	13,2	19,6
1,958	16,2	21,3
1,9585	18,6	22,0
1,959	19,8	21,7
1,9595	19,7	20,5
1,96	18,7	19,1
1,9605	17,5	17,8
1,961	17,1	16,9
1,9615	18,5	16,8
1,962	22,4	17,4
1,9625	28,7	18,5
1,963	36,3	19,9
1,9635	43,6	21,2
1,964	49,4	22,1
1,9645	53,0	22,1
1,965	54,8	21,3
1,9655	54,8	19,7
1,966	53,2	17,9
1,9665	50,0	16,5
1,967	46,0	16,3
1,9675	41,9	17,8
1,968	38,2	20,4
1,9685	35,2	23,3
1,969	33,4	25,2
1,9695	33,0	25,6
1,97	33,7	24,3
1,9705	35,0	22,0
1,971	36,1	19,3
1,9715	36,7	16,8
1,972	36,4	15,1
1,9725	35,6	14,5
1,973	34,6	14,9
1,9735	33,4	15,9
1,974	32,2	17,0
1,9745	30,9	17,9
1,975	30,0	18,1
1,9755	30,1	17,3
1,976	31,9	15,5
1,9765	35,5	13,5
1,977	40,2	12,0
1,9775	44,6	11,6
1,978	47,5	12,5
1,9785	48,8	14,3
1,979	48,5	16,3
1,9795	46,9	18,2
1,98	43,9	19,4
1,9805	39,6	19,8
1,981	34,6	19,2
1,9815	29,8	17,9
1,982	25,7	16,2
1,9825	22,4	14,2
1,983	19,8	12,3
1,9835	17,8	11,1
1,984	16,6	11,0
1,9845	16,2	11,7
1,985	16,5	12,7
1,9855	17,6	13,6
1,986	19,5	13,9
1,9865	21,9	13,4
1,987	24,3	12,0
1,9875	26,1	9,9
1,988	27,4	7,7
1,9885	28,2	6,0
1,989	28,7	5,1
1,9895	28,8	4,9
1,99	28,3	5,0
1,9905	26,1	5,5
1,991	21,5	6,7
1,9915	15,0	8,6
1,992	8,5	10,1
1,9925	4,0	10,6
1,993	2,4	10,3
1,9935	3,3	10,0
1,994	6,2	10,3
1,9945	10,5	11,1
1,995	16,1	12,1
1,9955	22,7	13,2
1,996	29,6	14,6
1,9965	35,8	16,2
1,997	40,6	17,8
1,9975	43,7	19,0
1,998	45,1	19,3
1,9985	45,0	18,8
1,999	44,3	17,5
1,9995	43,8	15,9
2	43,3	14,5
2,0005	41,8	13,7
2,001	38,7	13,9
2,0015	34,5	14,7
2,002	30,6	15,7
2,0025	28,5	16,6
2,003	28,8	17,3
2,0035	31,4	17,5
2,004	35,5	17,2
2,0045	39,9	16,6
2,005	43,9	16,1
2,0055	47,2	16,1
2,006	49,3	16,9
2,0065	49,8	18,4
2,007	48,5	20,0
2,0075	46,5	21,4
2,008	45,0	22,3
2,0085	44,8	22,3
2,009	45,7	21,7
2,0095	46,9	20,8
2,01	47,7	20,3
2,0105	47,7	20,3
2,011	47,0	20,7
2,0115	45,8	21,5
2,012	43,9	22,5
2,0125	41,6	23,7
2,013	39,3	24,7
2,0135	37,3	25,6
2,014	35,5	26,5
2,0145	33,2	27,3
2,015	30,4	27,8
2,0155	27,6	27,8
2,016	25,4	27,2
2,0165	24,5	26,3
2,017	24,7	25,7
2,0175	25,9	25,8
2,018	27,8	26,4
2,0185	30,2	26,9
2,019	32,3	27,0
2,0195	33,2	26,5
2,02	32,5	25,5
2,0205	30,5	24,4
2,021	28,1	23,3
2,0215	26,2	22,3
2,022	25,6	21,6
2,0225	26,4	21,1
2,023	28,3	21,3
2,0235	30,4	21,9
2,024	31,6	22,8
2,0245	31,4	23,4
2,025	30,3	23,4
2,0255	29,3	22,7
2,026	29,2	21,6
2,0265	29,7	20,6
2,027	29,9	19,8
2,0275	29,6	19,4
2,028	28,8	19,9
2,0285	27,5	21,3
2,029	25,9	23,6
2,0295	24,6	25,9
2,03	23,8	27,7
2,0305	23,8	28,3
2,031	24,3	27,5
2,0315	24,8	25,8
2,032	24,8	23,6
2,0325	24,5	21,1
2,033	24,3	18,7
2,0335	25,0	17,2
2,034	26,7	16,8
2,0345	29,0	17,3
2,035	30,7	18,0
2,0355	30,8	18,6
2,036	29,3	18,8
2,0365	26,7	18,7
2,037	23,8	18,0
2,0375	21,5	16,8
2,038	20,6	15,5
2,0385	21,6	14,3
2,039	24,1	13,3
2,0395	27,7	12,6
2,04	31,7	12,2
2,0405	35,4	12,4
2,041	38,5	13,7
2,0415	40,5	15,5
2,042	41,4	17,3
2,0425	41,3	18,5
2,043	40,2	19,1
2,0435	37,8	19,4
2,044	34,3	19,6
2,0445	30,1	19,9
2,045	26,7	20,6
2,0455	24,8	21,8
2,046	24,7	23,3
2,0465	25,7	24,8
2,047	27,1	25,9
2,0475	28,6	26,2
2,048	29,9	25,5
2,0485	30,9	24,1
2,049	31,6	22,5
2,0495	32,0	21,3
2,05	32,4	21,3
2,0505	33,1	22,6
2,051	33,9	24,7
2,0515	34,3	26,8
2,052	33,8	28,2
2,0525	32,6	28,5
2,053	30,8	27,7
2,0535	28,6	26,3
2,054	26,0	24,8
2,0545	23,5	23,3
2,055	21,4	22,0
2,0555	20,3	20,9
2,056	20,2	20,0
2,0565	20,5	19,5
2,057	20,6	19,3
2,0575	20,3	19,0
2,058	20,4	18,2
2,0585	21,6	16,5
2,059	23,9	13,8
2,0595	26,5	10,8
2,06	28,6	8,3
2,0605	29,9	6,8
2,061	30,7	6,5
2,0615	30,9	7,7
2,062	30,9	10,2
2,0625	31,4	13,6
2,063	33,4	17,0
2,0635	37,0	19,8
2,064	41,2	21,3
2,0645	44,4	21,7
2,065	45,5	21,1
2,0655	44,2	19,5
2,066	40,7	17,3
2,0665	35,5	15,3
2,067	29,3	14,6
2,0675	22,5	15,0
2,068	16,4	16,1
2,0685	12,1	16,9
2,069	10,5	17,3
2,0695	11,4	17,0
2,07	13,5	16,3
2,0705	15,8	15,2
2,071	17,8	13,9
2,0715	20,1	12,8
2,072	22,9	11,8
2,0725	25,7	11,3
2,073	27,5	11,2
2,0735	28,4	11,6
2,074	29,0	12,4
2,0745	30,3	13,2
2,075	32,5	13,4
2,0755	34,9	12,8
2,076	37,0	11,6
2,0765	38,8	10,1
2,077	40,4	8,8
2,0775	41,6	7,8
2,078	42,3	7,0
2,0785	43,1	6,9
2,079	44,3	7,5
2,0795	46,1	8,9
2,08	48,5	10,8
2,0805	50,8	12,3
2,081	52,3	13,3
2,0815	52,6	13,7
2,082	51,7	13,8
2,0825	50,1	13,5
2,083	48,0	13,2
2,0835	45,1	13,1
2,084	40,5	13,9
2,0845	33,0	15,4
2,085	22,9	17,3
2,0855	12,3	19,1
2,086	4,1	20,4
2,0865	0,1	20,8
2,087	0,3	20,1
2,0875	3,5	18,8
2,088	8,5	17,4
2,0885	14,6	16,5
2,089	21,3	16,6
2,0895	28,2	17,6
2,09	34,7	18,9
2,0905	40,0	19,9
2,091	43,6	20,3
2,0915	45,9	19,7
2,092	47,6	18,3
2,0925	49,1	16,3
2,093	50,5	14,3
2,0935	50,9	12,6
2,094	49,8	11,6
2,0945	46,6	11,6
2,095	41,7	12,6
2,0955	35,9	14,4
2,096	30,2	16,5
2,0965	25,2	18,3
2,097	21,2	19,3
2,0975	18,7	19,2
2,098	17,7	18,6
2,0985	18,5	17,7
2,099	21,8	16,6
2,0995	27,7	15,4
2,1	35,6	14,1
2,1005	43,6	13,0
2,101	49,8	12,1
2,1015	52,8	11,2
2,102	51,8	10,3
2,1025	47,3	9,7
2,103	40,7	9,3
2,1035	33,5	9,2
2,104	27,3	8,8
2,1045	23,1	8,2
2,105	21,2	7,5
2,1055	21,4	7,2
2,106	23,2	7,6
2,1065	25,9	8,7
2,107	28,9	10,3
2,1075	32,0	12,1
2,108	35,2	13,5
2,1085	38,5	13,5
2,109	41,7	12,1
2,1095	44,5	9,7
2,11	46,2	7,2
2,1105	46,7	5,4
2,111	45,9	4,9
2,1115	44,2	5,6
2,112	41,7	7,4
2,1125	38,4	9,9
2,113	35,0	12,4
2,1135	31,7	14,4
2,114	29,0	15,6
2,1145	26,8	15,8
2,115	25,4	15,2
2,1155	25,1	13,9
2,116	25,8	11,9
2,1165	27,1	9,8
2,117	28,8	8,6
2,1175	30,5	8,6
2,118	32,2	9,5
2,1185	33,7	10,5
2,119	35,0	11,2
2,1195	36,2	11,2
2,12	37,4	10,4
2,1205	38,4	8,7
2,121	39,5	6,4
2,1215	40,9	3,7
2,122	42,6	1,2
2,1225	44,6	-0,9
2,123	46,9	-2,1
2,1235	49,4	-2,5
2,124	51,8	-2,1
2,1245	53,6	-1,0
2,125	54,5	0,2
2,1255	54,5	0,9
2,126	53,3	1,0
2,1265	51,3	0,4
2,127	48,7	-0,8
2,1275	46,2	-2,5
2,128	44,1	-3,9
2,1285	42,2	-4,5
2,129	39,6	-3,6
2,1295	35,5	-1,3
2,13	30,4	1,9
2,1305	26,1	4,5
2,131	24,1	5,6
2,1315	24,6	5,1
2,132	26,9	3,6
2,1325	29,6	2,0
2,133	31,5	0,8
2,1335	31,9	0,4
2,134	31,1	1,2
2,1345	29,9	2,5
2,135	29,0	3,8
2,1355	28,7	5,0
2,136	28,6	6,0
2,1365	28,3	6,7
2,137	27,3	6,9
2,1375	24,9	6,9
2,138	21,3	6,8
2,1385	16,8	6,9
2,139	11,9	7,3
2,1395	7,3	8,1
2,14	3,6	9,3
2,1405	1,0	10,8
2,141	-0,3	12,4
2,1415	-0,3	13,9
2,142	1,3	14,7
2,1425	4,0	14,3
2,143	7,1	13,1
2,1435	9,9	11,6
2,144	12,5	10,5
2,1445	15,3	10,3
2,145	18,4	11,3
2,1455	21,9	13,2
2,146	25,5	15,6
2,1465	29,4	18,1
2,147	33,8	20,3
2,1475	39,4	21,9
2,148	46,4	22,8
2,1485	54,4	23,3
2,149	61,7	23,5
2,1495	66,8	23,4
2,15	69,5	23,2
2,1505	70,0	22,9
2,151	68,8	23,0
2,1515	66,5	23,2
2,152	63,5	23,7
2,1525	59,7	24,3
2,153	55,3	24,8
2,1535	49,9	24,8
2,154	43,7	24,0
2,1545	37,3	22,5
2,155	32,0	21,0
2,1555	28,2	20,3
2,156	25,7	20,7
2,1565	24,4	21,8
2,157	24,1	22,9
2,1575	24,4	23,9
2,158	24,6	24,7
2,1585	24,4	24,8
2,159	24,1	23,8
2,1595	24,1	22,0
2,16	24,6	19,8
2,1605	25,1	17,8
2,161	25,4	16,2
2,1615	25,4	15,0
2,162	25,8	14,4
2,1625	27,3	14,3
2,163	29,9	14,5
2,1635	32,7	14,8
2,164	34,6	14,7
2,1645	35,5	13,9
2,165	36,3	12,7
2,1655	37,7	11,8
2,166	39,5	11,2
2,1665	41,1	10,9
2,167	42,1	11,1
2,1675	42,2	11,6
2,168	40,8	12,1
2,1685	38,2	12,3
2,169	34,8	12,5
2,1695	30,7	12,9
2,17	24,9	13,8
2,1705	16,7	15,0
2,171	6,4	15,9
2,1715	-3,6	16,5
2,172	-10,9	16,4
2,1725	-14,4	16,0
2,173	-13,5	15,4
2,1735	-8,8	14,9
2,174	-0,7	14,5
2,1745	10,2	14,3
2,175	22,5	14,3
2,1755	34,7	14,3
2,176	45,0	14,2
2,1765	52,4	14,1
2,177	57,3	14,1
2,1775	60,5	14,1
2,178	62,7	14,2
2,1785	64,3	14,7
2,179	65,2	15,5
2,1795	64,9	16,6
2,18	63,1	17,9
2,1805	59,9	19,2
2,181	55,4	19,9
2,1815	50,6	20,1
2,182	46,2	19,8
2,1825	42,8	19,3
2,183	40,2	19,0
2,1835	38,0	19,3
2,184	35,5	20,6
2,1845	32,8	22,3
2,185	30,3	24,1
2,1855	28,4	25,3
2,186	27,5	25,5
2,1865	27,8	25,0
2,187	28,9	23,8
2,1875	30,5	22,3
2,188	32,4	20,7
2,1885	34,6	19,2
2,189	37,1	18,3
2,1895	39,5	18,2
2,19	40,9	18,6
2,1905	40,8	19,3
2,191	39,5	20,4
2,1915	37,4	21,8
2,192	35,5	22,9
2,1925	34,1	23,0
2,193	33,3	22,1
2,1935	32,3	20,9
2,194	30,3	20,1
2,1945	26,9	19,6
2,195	22,9	19,5
2,1955	19,4	19,7
2,196	17,5	20,1
2,1965	17,9	20,7
2,197	20,3	21,2
2,1975	24,2	21,3
2,198	28,4	20,8
2,1985	31,7	19,5
2,199	33,2	17,5
2,1995	33,2	14,5
2,2	32,8	11,3
2,2005	33,3	8,9
2,201	35,2	8,0
2,2015	38,2	8,4
2,202	41,4	9,5
2,2025	44,0	10,7
2,203	45,4	11,8
2,2035	45,8	12,4
2,204	46,0	12,6
2,2045	46,4	12,5
2,205	47,0	12,5
2,2055	47,5	12,6
2,206	47,5	13,1
2,2065	46,8	13,5
2,207	45,7	13,8
2,2075	44,1	14,1
2,208	41,8	14,7
2,2085	38,0	15,3
2,209	32,8	15,3
2,2095	27,1	14,6
2,21	22,0	13,2
2,2105	18,7	11,7
2,211	17,4	10,5
2,2115	17,7	10,3
2,212	19,1	11,0
2,2125	20,4	12,6
2,213	21,3	14,8
2,2135	21,4	17,0
2,214	21,2	18,8
2,2145	20,9	19,7
2,215	20,8	20,1
2,2155	21,2	19,9
2,216	22,0	19,5
2,2165	23,2	19,1
2,217	24,5	19,3
2,2175	25,8	20,2
2,218	27,2	21,6
2,2185	28,8	22,8
2,219	30,6	23,8
2,2195	32,3	24,3
2,22	33,7	24,3
2,2205	34,5	23,8
2,221	35,0	23,1
2,2215	35,4	22,3
2,222	36,2	21,5
2,2225	37,2	21,3
2,223	38,2	21,5
2,2235	38,7	22,2
2,224	38,8	23,1
2,2245	38,5	23,7
2,225	38,1	23,7
2,2255	37,6	22,8
2,226	36,9	21,2
2,2265	36,6	19,5
2,227	36,9	18,1
2,2275	38,0	17,5
2,228	39,6	17,5
2,2285	40,7	18,3
2,229	40,9	19,4
2,2295	39,9	20,9
2,23	38,4	22,3
2,2305	36,9	23,5
2,231	36,3	23,9
2,2315	36,8	23,8
2,232	38,1	23,0
2,2325	39,6	21,4
2,233	40,9	19,5
2,2335	42,0	18,2
2,234	43,1	18,3
2,2345	43,8	19,4
2,235	43,6	20,8
2,2355	41,8	21,7
2,236	39,1	22,0
2,2365	36,6	21,9
2,237	35,0	21,3
2,2375	34,3	20,3
2,238	33,5	18,8
2,2385	32,2	17,6
2,239	30,4	17,2
2,2395	28,9	18,0
2,24	28,0	19,5
2,2405	28,3	21,2
2,241	29,8	22,6
2,2415	31,7	23,4
2,242	33,6	23,5
2,2425	34,9	22,8
2,243	35,3	21,5
2,2435	34,3	20,2
2,244	32,2	19,3
2,2445	30,0	19,0
2,245	28,7	19,3
2,2455	28,9	20,0
2,246	30,4	21,2
2,2465	32,5	22,5
2,247	34,8	23,6
2,2475	36,6	24,0
2,248	37,3	23,5
2,2485	37,0	22,2
2,249	35,6	20,6
2,2495	33,9	19,0
2,25	32,7	17,8
2,2505	32,2	17,8
2,251	32,4	19,0
2,2515	33,1	21,0
2,252	34,0	23,4
2,2525	35,3	25,4
2,253	36,9	26,7
2,2535	38,3	26,7
2,254	39,3	25,8
2,2545	39,5	24,1
2,255	39,0	22,5
2,2555	38,2	21,5
2,256	37,4	21,4
2,2565	36,0	22,0
2,257	33,1	23,0
2,2575	27,9	24,4
2,258	20,9	25,6
2,2585	13,8	25,9
2,259	8,0	24,8
2,2595	4,5	22,9
2,26	3,8	20,7
2,2605	5,9	18,7
2,261	9,9	17,1
2,2615	14,5	15,9
2,262	18,4	15,4
2,2625	21,0	15,6
2,263	22,5	16,6
2,2635	23,7	17,8
2,264	25,6	18,8
2,2645	28,3	19,4
2,265	31,0	19,3
2,2655	33,0	18,7
2,266	33,3	17,9
2,2665	31,4	17,3
2,267	27,3	17,0
2,2675	22,8	17,3
2,268	20,6	18,0
2,2685	23,1	18,8
2,269	29,5	19,3
2,2695	37,6	19,2
2,27	45,0	18,5
2,2705	50,5	17,2
2,271	53,6	15,4
2,2715	54,6	13,9
2,272	53,8	13,3
2,2725	51,9	13,8
2,273	49,9	15,2
2,2735	48,0	17,0
2,274	45,7	19,0
2,2745	42,1	21,3
2,275	36,7	23,4
2,2755	30,0	24,5
2,276	23,0	24,3
2,2765	16,9	22,9
2,277	12,8	21,4
2,2775	11,1	20,2
2,278	12,0	19,6
2,2785	15,3	19,7
2,279	21,2	20,3
2,2795	29,0	21,4
2,28	37,1	22,6
2,2805	43,5	23,7
2,281	47,3	24,4
2,2815	48,4	24,9
2,282	47,9	25,1
2,2825	46,7	25,0
2,283	45,5	24,7
2,2835	44,3	24,7
2,284	43,3	25,4
2,2845	42,4	26,8
2,285	41,5	28,1
2,2855	40,3	28,8
2,286	38,8	28,9
2,2865	37,3	28,6
2,287	36,3	28,4
2,2875	35,5	28,2
2,288	34,7	27,9
2,2885	33,8	27,5
2,289	33,2	27,2
2,2895	33,5	27,3
2,29	35,3	27,7
2,2905	38,3	28,5
2,291	41,3	29,5
2,2915	43,0	30,1
2,292	42,9	30,0
2,2925	41,8	28,9
2,293	40,4	27,1
2,2935	39,8	24,9
2,294	40,0	22,9
2,2945	41,0	21,3
2,295	42,5	20,3
2,2955	43,9	20,2
2,296	44,7	20,9
2,2965	44,6	21,9
2,297	43,2	22,7
2,2975	40,7	22,9
2,298	37,8	22,4
2,2985	35,3	21,6
2,299	33,7	20,8
2,2995	33,1	20,3
2,3	33,0	19,8
2,3005	32,8	19,9
2,301	32,5	20,6
2,3015	32,0	21,8
2,302	31,8	23,4
2,3025	31,8	24,9
2,303	32,1	25,8
2,3035	32,4	25,5
2,304	32,4	23,7
2,3045	32,2	20,9
2,305	32,0	18,1
2,3055	31,9	15,9
2,306	31,9	15,0
2,3065	31,9	14,9
2,307	32,1	15,2
2,3075	32,7	15,6
2,308	33,9	16,2
2,3085	35,8	16,6
2,309	37,6	16,3
2,3095	38,6	15,2
2,31	38,1	13,5
2,3105	35,9	11,8
2,311	32,7	10,4
2,3115	29,7	9,3
2,312	27,8	8,5
2,3125	26,7	8,2
2,313	26,3	8,5
2,3135	26,1	9,4
2,314	26,2	10,5
2,3145	26,8	11,2
2,315	27,8	11,2
2,3155	28,8	10,5
2,316	29,5	9,3
2,3165	29,3	8,0
2,317	28,3	7,1
2,3175	27,5	7,2
2,318	27,7	8,5
2,3185	29,2	10,5
2,319	31,5	12,8
2,3195	33,4	15,1
2,32	34,1	16,6
2,3205	33,4	17,1
2,321	31,9	16,8
2,3215	30,8	16,0
2,322	30,3	15,3
2,3225	29,3	15,0
2,323	26,1	15,3
2,3235	20,4	16,0
2,324	14,2	16,9
2,3245	9,8	17,6
2,325	8,4	17,9
2,3255	9,9	17,3
2,326	13,6	15,7
2,3265	19,1	13,3
2,327	25,8	11,0
2,3275	33,0	9,5
2,328	39,3	9,0
2,3285	43,3	9,6
2,329	44,4	11,2
2,3295	43,1	13,3
2,33	40,1	15,6
2,3305	36,2	17,3
2,331	32,0	17,8
2,3315	28,3	17,3
2,332	26,1	16,2
2,3325	25,4	14,9
2,333	26,0	13,9
2,3335	27,3	13,4
2,334	29,3	13,9
2,3345	31,6	15,3
2,335	34,2	17,1
2,3355	36,8	18,6
2,336	38,6	19,6
2,3365	38,9	20,1
2,337	37,4	19,9
2,3375	34,4	19,0
2,338	30,6	17,5
2,3385	27,1	15,7
2,339	24,6	14,2
2,3395	23,3	13,4
2,34	23,4	13,8
2,3405	24,6	15,1
2,341	26,6	16,9
2,3415	29,1	18,8
2,342	31,5	20,1
2,3425	32,9	20,2
2,343	32,8	19,1
2,3435	31,4	17,2
2,344	29,7	15,4
2,3445	28,8	14,3
2,345	29,5	14,3
2,3455	31,3	15,4
2,346	33,2	17,7
2,3465	34,0	20,7
2,347	33,4	23,7
2,3475	31,9	26,1
2,348	29,3	27,3
2,3485	25,3	27,5
2,349	19,5	27,2
2,3495	12,8	27,1
2,35	6,3	27,6
2,3505	1,3	28,9
2,351	-1,6	31,0
2,3515	-2,2	33,2
2,352	-0,5	34,9
2,3525	3,3	35,5
2,353	9,3	35,0
2,3535	17,4	33,4
2,354	28,0	31,2
2,3545	40,3	28,3
2,355	52,7	25,3
2,3555	63,0	22,8
2,356	69,8	21,4
2,3565	73,0	21,3
2,357	73,2	22,2
2,3575	70,3	23,7
2,358	64,4	25,7
2,3585	55,8	27,4
2,359	45,8	28,2
2,3595	36,3	27,7
2,36	28,7	26,3
2,3605	23,1	24,8
2,361	18,9	23,8
2,3615	15,3	23,9
2,362	12,0	25,0
2,3625	9,2	27,0
2,363	7,6	29,0
2,3635	7,4	30,4
2,364	8,3	31,0
2,3645	10,1	30,9
2,365	12,6	30,4
2,3655	15,4	29,6
2,366	18,2	28,6
2,3665	20,6	27,4
2,367	22,2	26,6
2,3675	23,7	26,4
2,368	26,0	26,9
2,3685	29,7	27,9
2,369	34,6	29,1
2,3695	39,9	30,4
2,37	44,6	31,5
2,3705	47,9	32,1
2,371	49,7	32,1
2,3715	50,5	31,6
2,372	50,8	30,8
2,3725	51,0	30,1
2,373	51,1	29,6
2,3735	50,6	29,4
2,374	49,4	29,7
2,3745	47,7	30,4
2,375	46,0	31,3
2,3755	44,4	31,6
2,376	42,6	31,1
2,3765	39,8	30,2
2,377	36,2	29,3
2,3775	32,2	29,0
2,378	28,5	29,5
2,3785	25,6	30,5
2,379	23,3	31,9
2,3795	21,5	33,2
2,38	20,2	34,3
2,3805	19,2	35,0
2,381	18,3	35,0
2,3815	17,7	34,2
2,382	17,4	33,1
2,3825	17,9	31,8
2,383	19,5	30,7
2,3835	22,2	29,9
2,384	25,3	29,9
2,3845	28,0	30,7
2,385	29,8	31,9
2,3855	30,4	32,9
2,386	29,8	33,5
2,3865	28,3	33,4
2,387	27,0	32,3
2,3875	27,2	30,3
2,388	29,5	28,0
2,3885	33,3	25,7
2,389	37,3	23,7
2,3895	40,1	22,2
2,39	41,3	21,1
2,3905	41,2	20,4
2,391	40,8	20,3
2,3915	40,6	20,8
2,392	40,6	21,4
2,3925	41,0	21,8
2,393	41,6	22,3
2,3935	42,6	22,8
2,394	43,8	23,3
2,3945	44,9	23,8
2,395	45,7	24,5
2,3955	45,9	25,5
2,396	45,6	26,8
2,3965	44,7	28,1
2,397	43,6	28,9
2,3975	42,4	29,1
2,398	40,9	28,5
2,3985	38,5	27,8
2,399	35,1	27,0
2,3995	31,4	26,3
2,4	28,1	25,8
2,4005	25,4	25,8
2,401	23,1	26,6
2,4015	21,0	28,2
2,402	19,2	30,0
2,4025	17,9	31,4
2,403	17,3	31,8
2,4035	17,4	31,1
2,404	18,8	29,2
2,4045	21,7	26,8
2,405	26,4	24,4
2,4055	32,3	22,9
2,406	37,8	22,4
2,4065	41,5	23,0
2,407	42,6	24,4
2,4075	40,9	26,3
2,408	37,7	28,8
2,4085	34,3	31,1
2,409	31,8	32,5
2,4095	30,5	32,4
2,41	30,3	31,2
2,4105	30,8	29,5
2,411	31,9	28,1
2,4115	33,1	27,5
2,412	33,3	27,9
2,4125	32,3	29,7
2,413	30,2	32,2
2,4135	28,1	34,6
2,414	26,7	35,9
2,4145	26,2	36,1
2,415	26,2	35,6
2,4155	26,1	34,8
2,416	25,9	33,6
2,4165	25,6	32,3
2,417	25,6	31,2
2,4175	26,2	30,6
2,418	27,5	30,5
2,4185	29,4	30,9
2,419	31,4	31,8
2,4195	33,4	32,7
2,42	34,9	33,3
2,4205	35,6	33,6
2,421	34,8	33,8
2,4215	32,4	34,4
2,422	29,3	35,2
2,4225	26,5	35,8
2,423	25,1	36,1
2,4235	25,4	35,9
2,424	26,6	35,5
2,4245	27,6	35,2
2,425	27,8	34,6
2,4255	27,3	33,4
2,426	26,4	31,5
2,4265	25,3	29,4
2,427	23,9	27,8
2,4275	21,7	27,0
2,428	18,3	27,0
2,4285	14,6	27,6
2,429	11,4	28,8
2,4295	9,6	30,2
2,43	9,3	31,5
2,4305	10,3	32,4
2,431	12,0	32,7
2,4315	14,3	32,3
2,432	16,9	31,5
2,4325	19,7	30,4
2,433	22,7	29,2
2,4335	25,7	28,2
2,434	28,4	27,9
2,4345	31,0	28,3
2,435	33,4	28,8
2,4355	35,5	29,1
2,436	36,9	29,0
2,4365	37,6	28,5
2,437	37,5	27,8
2,4375	36,8	26,6
2,438	35,9	24,7
2,4385	35,2	22,6
2,439	34,9	20,8
2,4395	35,3	20,1
2,44	36,4	20,3
2,4405	37,9	21,2
2,441	39,5	22,3
2,4415	40,8	23,4
2,442	41,9	24,0
2,4425	43,0	23,7
2,443	44,7	22,3
2,4435	47,7	20,4
2,444	52,4	18,3
2,4445	58,9	16,6
2,445	65,8	15,7
2,4455	71,5	15,8
2,446	74,4	16,8
2,4465	74,2	18,2
2,447	71,4	19,3
2,4475	66,7	20,0
2,448	61,0	20,0
2,4485	55,2	19,6
2,449	49,4	18,8
2,4495	43,4	17,6
2,45	36,6	16,2
2,4505	29,0	15,1
2,451	21,9	14,8
2,4515	17,0	15,3
2,452	15,1	16,4
2,4525	15,4	17,5
2,453	16,3	18,4
2,4535	16,8	18,8
2,454	16,2	18,9
2,4545	14,8	18,7
2,455	13,2	18,3
2,4555	12,2	18,0
2,456	12,7	18,2
2,4565	14,6	18,9
2,457	17,4	20,2
2,4575	20,5	21,5
2,458	23,6	22,9
2,4585	27,1	24,0
2,459	31,5	24,5
2,4595	36,7	24,2
2,46	42,3	23,1
2,4605	47,3	21,8
2,461	51,2	20,5
2,4615	53,9	19,7
2,462	55,5	19,5
2,4625	56,3	20,0
2,463	56,3	21,1
2,4635	55,5	22,4
2,464	54,0	23,3
2,4645	51,7	23,6
2,465	48,5	23,3
2,4655	44,8	22,7
2,466	41,1	21,7
2,4665	38,1	20,6
2,467	36,3	20,0
2,4675	35,4	20,2
2,468	35,4	21,5
2,4685	36,1	23,6
2,469	36,6	26,2
2,4695	36,2	28,5
2,47	34,4	29,9
2,4705	31,8	30,1
2,471	29,8	29,3
2,4715	28,9	27,5
2,472	28,9	25,5
2,4725	29,1	23,9
2,473	28,5	23,2
2,4735	27,4	23,2
2,474	26,0	23,8
2,4745	25,0	25,0
2,475	24,4	26,2
2,4755	24,1	26,9
2,476	23,8	26,8
2,4765	23,4	26,3
2,477	23,3	25,6
2,4775	23,5	25,2
2,478	24,3	25,2
2,4785	25,5	25,8
2,479	26,9	27,1
2,4795	28,2	28,7
2,48	29,4	30,4
2,4805	30,3	31,8
2,481	30,8	32,8
2,4815	30,2	33,1
2,482	28,0	32,7
2,4825	23,4	31,5
2,483	16,6	29,9
2,4835	8,6	28,5
2,484	1,0	27,7
2,4845	-4,1	27,8
2,485	-5,7	28,4
2,4855	-3,9	29,3
2,486	0,3	30,1
2,4865	6,1	30,3
2,487	12,8	29,7
2,4875	19,6	28,4
2,488	25,3	26,9
2,4885	28,5	25,9
2,489	28,7	25,9
2,4895	26,8	26,4
2,49	24,4	27,1
2,4905	23,1	27,5
2,491	23,5	27,5
2,4915	25,8	27,2
2,492	29,5	26,6
2,4925	33,8	25,6
2,493	37,5	24,3
2,4935	40,2	23,4
2,494	42,2	22,8
2,4945	44,1	22,9
2,495	46,1	23,5
2,4955	47,7	24,6
2,496	48,8	26,2
2,4965	49,4	27,7
2,497	50,0	28,8
2,4975	50,8	29,1
2,498	51,3	28,5
2,4985	51,1	27,1
2,499	49,9	25,4
2,4995	47,8	23,5
2,5	45,4	22,1
2,5005	43,2	21,6
2,501	42,1	22,3
2,5015	42,6	23,8
2,502	44,5	25,8
2,5025	47,1	27,9
2,503	49,3	29,6
2,5035	50,4	30,4
2,504	50,1	30,0
2,5045	49,2	28,3
2,505	48,2	26,1
2,5055	47,5	24,2
2,506	47,0	23,1
2,5065	46,6	22,9
2,507	46,3	23,2
2,5075	46,0	24,0
2,508	45,6	25,0
2,5085	45,4	25,9
2,509	45,6	26,1
2,5095	46,2	25,6
2,51	46,6	24,8
2,5105	46,4	23,9
2,511	45,3	22,8
2,5115	43,5	21,7
2,512	41,4	20,8
2,5125	39,7	20,3
2,513	38,2	20,6
2,5135	36,8	21,4
2,514	34,8	22,1
2,5145	32,2	22,1
2,515	29,3	21,1
2,5155	26,3	19,6
2,516	23,2	17,8
2,5165	19,8	16,3
2,517	16,1	15,3
2,5175	12,5	15,2
2,518	9,1	16,2
2,5185	5,5	17,9
2,519	2,1	19,7
2,5195	-0,4	21,1
2,52	-0,8	21,6
2,5205	1,6	21,2
2,521	6,2	20,3
2,5215	11,5	19,3
2,522	16,3	18,7
2,5225	20,6	18,8
2,523	25,0	19,8
2,5235	30,2	21,5
2,524	36,2	23,6
2,5245	42,5	25,6
2,525	48,9	27,2
2,5255	54,8	28,0
2,526	59,8	27,7
2,5265	64,2	26,6
2,527	68,9	25,1
2,5275	74,0	23,6
2,528	78,0	22,3
2,5285	78,8	21,6
2,529	75,5	21,7
2,5295	68,9	22,8
2,53	61,0	24,3
2,5305	53,9	25,6
2,531	48,5	26,2
2,5315	44,4	26,1
2,532	40,4	25,4
2,5325	36,2	24,4
2,533	31,9	23,1
2,5335	28,5	21,8
2,534	26,2	21,0
2,5345	25,0	21,1
2,535	24,3	21,8
2,5355	23,7	22,8
2,536	23,2	23,6
2,5365	22,8	23,8
2,537	22,8	23,2
2,5375	23,0	22,0
2,538	23,4	20,4
2,5385	24,1	19,0
2,539	25,4	18,0
2,5395	27,6	18,0
2,54	30,8	18,9
2,5405	34,5	20,5
2,541	37,9	22,3
2,5415	40,3	23,9
2,542	42,2	24,5
2,5425	43,8	23,7
2,543	45,0	21,6
2,5435	45,7	18,9
2,544	46,4	16,3
2,5445	47,4	14,2
2,545	48,3	12,9
2,5455	48,0	12,8
2,546	46,5	13,8
2,5465	44,8	15,3
2,547	44,2	17,2
2,5475	45,6	19,0
2,548	48,2	20,3
2,5485	50,5	21,1
2,549	50,8	21,0
2,5495	48,8	19,8
2,55	45,1	17,7
2,5505	41,5	15,7
2,551	39,4	14,6
2,5515	39,5	14,8
2,552	41,0	15,7
2,5525	42,9	16,9
2,553	44,5	18,1
2,5535	45,3	18,9
2,554	45,0	19,1
2,5545	43,8	18,6
2,555	41,8	17,8
2,5555	39,2	16,9
2,556	36,7	16,3
2,5565	34,6	16,6
2,557	33,0	18,1
2,5575	31,5	20,5
2,558	29,8	23,2
2,5585	28,6	25,3
2,559	28,7	26,3
2,5595	30,1	25,8
2,56	32,2	24,4
2,5605	33,6	22,5
2,561	33,8	20,4
2,5615	32,9	18,3
2,562	31,1	16,7
2,5625	28,3	16,0
2,563	24,7	16,7
2,5635	21,2	18,3
2,564	19,0	20,5
2,5645	18,6	22,4
2,565	20,0	23,7
2,5655	22,6	23,9
2,566	25,6	23,1
2,5665	28,4	21,6
2,567	30,8	20,3
2,5675	32,6	19,9
2,568	34,0	20,3
2,5685	35,3	21,1
2,569	36,7	21,9
2,5695	37,9	22,5
2,57	38,6	22,8
2,5705	38,6	22,5
2,571	38,0	21,8
2,5715	37,4	20,7
2,572	37,2	19,6
2,5725	37,7	18,9
2,573	39,8	18,8
2,5735	44,1	19,0
2,574	49,8	19,6
2,5745	55,4	20,8
2,575	59,5	22,4
2,5755	61,9	23,7
2,576	63,3	23,5
2,5765	63,6	21,9
2,577	62,8	19,7
2,5775	60,7	17,8
2,578	57,2	16,9
2,5785	52,6	17,4
2,579	47,2	19,1
2,5795	41,1	21,4
2,58	34,5	23,6
2,5805	27,3	25,1
2,581	19,6	25,6
2,5815	12,1	24,9
2,582	5,0	23,7
2,5825	-1,4	22,2
2,583	-7,4	20,8
2,5835	-13,3	19,7
2,584	-18,9	19,3
2,5845	-23,7	19,6
2,585	-26,4	20,5
2,5855	-26,5	21,7
2,586	-23,8	22,6
2,5865	-18,5	23,2
2,587	-11,2	23,0
2,5875	-2,8	22,1
2,588	6,2	20,5
2,5885	15,2	18,5
2,589	23,9	16,5
2,5895	32,4	15,0
2,59	40,5	14,1
2,5905	47,6	13,7
2,591	52,8	13,8
2,5915	55,6	14,4
2,592	56,2	15,1
2,5925	55,4	15,2
2,593	53,8	14,5
2,5935	52,1	13,1
2,594	50,8	11,3
2,5945	49,7	9,5
2,595	48,8	8,2
2,5955	48,3	7,8
2,596	49,3	8,1
2,5965	52,8	8,8
2,597	58,2	9,5
2,5975	63,6	9,8
2,598	66,8	9,7
2,5985	67,1	9,3
2,599	64,8	8,6
2,5995	61,2	7,8
2,6	57,5	6,8
2,6005	53,7	6,4
2,601	48,8	6,8
2,6015	42,3	7,7
2,602	34,5	8,4
2,6025	27,1	8,8
2,603	21,0	8,7
2,6035	16,2	8,3
2,604	11,4	7,6
2,6045	5,9	6,7
2,605	0,3	5,7
2,6055	-3,8	4,9
2,606	-5,3	4,7
2,6065	-3,3	5,0
2,607	2,6	5,6
2,6075	12,2	6,2
2,608	24,5	6,8
2,6085	38,1	7,6
2,609	52,0	8,3
2,6095	65,0	8,6
2,61	75,8	8,4
2,6105	82,7	7,9
2,611	85,3	7,3
2,6115	84,8	7,3
2,612	83,0	7,9
2,6125	81,4	9,3
2,613	79,8	11,0
2,6135	77,2	12,7
2,614	72,4	13,8
2,6145	65,6	13,8
2,615	58,0	12,9
2,6155	50,5	11,3
2,616	43,8	9,6
2,6165	38,7	8,1
2,617	36,0	6,9
2,6175	36,3	6,6
2,618	39,6	7,0
2,6185	44,9	7,8
2,619	51,2	8,7
2,6195	57,3	9,7
2,62	62,0	10,6
2,6205	64,9	11,2
2,621	65,8	11,2
2,6215	64,7	10,8
2,622	61,7	10,2
2,6225	57,7	10,1
2,623	53,5	10,6
2,6235	50,2	11,4
2,624	48,1	12,3
2,6245	46,6	13,3
2,625	44,8	14,5
2,6255	42,4	15,7
2,626	39,4	16,3
2,6265	36,1	16,1
2,627	32,0	15,2
2,6275	26,9	13,8
2,628	21,3	12,3
2,6285	16,4	11,6
2,629	13,2	12,2
2,6295	12,1	14,2
2,63	12,6	17,4
2,6305	13,5	21,3
2,631	14,3	24,9
2,6315	15,3	27,6
2,632	17,3	29,1
2,6325	21,1	29,0
2,633	26,4	27,6
2,6335	32,2	25,8
2,634	37,6	24,6
2,6345	42,2	24,6
2,635	45,6	25,4
2,6355	47,6	26,3
2,636	47,5	26,8
2,6365	44,9	26,7
2,637	40,3	26,0
2,6375	34,6	24,6
2,638	29,0	22,7
2,6385	24,0	20,4
2,639	20,0	18,2
2,6395	17,3	16,6
2,64	16,1	15,8
2,6405	16,3	15,5
2,641	17,9	15,8
2,6415	20,6	16,4
2,642	23,3	16,8
2,6425	25,7	16,7
2,643	27,4	15,9
2,6435	28,6	14,9
2,644	29,6	14,0
2,6445	30,5	13,6
2,645	31,6	13,6
2,6455	32,9	14,0
2,646	34,3	14,9
2,6465	35,8	16,2
2,647	37,2	17,7
2,6475	38,6	19,0
2,648	39,8	19,8
2,6485	40,9	20,2
2,649	42,3	20,4
2,6495	44,5	20,4
2,65	47,8	19,9
2,6505	51,6	19,0
2,651	55,4	18,1
2,6515	58,8	17,6
2,652	60,7	17,4
2,6525	61,0	17,5
2,653	60,0	17,6
2,6535	58,5	17,4
2,654	56,2	16,6
2,6545	53,0	15,1
2,655	49,0	13,0
2,6555	44,8	10,8
2,656	41,2	9,3
2,6565	37,7	8,9
2,657	34,0	9,5
2,6575	30,2	10,3
2,658	26,8	11,0
2,6585	24,8	11,5
2,659	24,6	11,7
2,6595	26,2	11,6
2,66	28,7	11,1
2,6605	31,5	10,2
2,661	34,0	9,4
2,6615	34,9	8,8
2,662	33,0	8,5
2,6625	28,3	8,8
2,663	21,8	9,7
2,6635	15,6	11,3
2,664	10,7	13,0
2,6645	7,8	14,1
2,665	6,6	14,3
2,6655	7,0	13,8
2,666	8,7	12,7
2,6665	11,8	11,3
2,667	16,3	10,1
2,6675	21,0	9,8
2,668	25,1	10,6
2,6685	27,8	12,2
2,669	29,1	13,6
2,6695	29,5	14,5
2,67	29,3	14,6
2,6705	29,2	14,1
2,671	30,4	13,3
2,6715	33,8	12,3
2,672	39,6	11,3
2,6725	47,6	10,6
2,673	56,8	10,4
2,6735	65,8	10,9
2,674	72,6	12,1
2,6745	75,7	13,6
2,675	74,6	15,1
2,6755	69,6	16,2
2,676	61,8	16,5
2,6765	53,3	16,0
2,677	45,6	15,2
2,6775	39,4	14,6
2,678	34,3	14,3
2,6785	29,7	14,7
2,679	25,5	15,8
2,6795	22,3	17,2
2,68	20,4	18,8
2,6805	19,9	20,1
2,681	20,1	20,7
2,6815	20,1	20,6
2,682	19,6	20,1
2,6825	18,7	19,5
2,683	17,7	18,6
2,6835	16,8	17,8
2,684	16,5	17,5
2,6845	17,3	18,1
2,685	19,1	19,4
2,6855	22,0	20,9
2,686	25,4	22,3
2,6865	29,2	23,3
2,687	33,4	23,8
2,6875	38,1	23,6
2,688	42,6	22,5
2,6885	46,5	20,8
2,689	49,6	19,0
2,6895	52,1	17,9
2,69	54,3	17,8
2,6905	55,9	18,7
2,691	56,4	20,4
2,6915	55,7	22,4
2,692	53,9	24,0
2,6925	51,4	24,6
2,693	48,6	24,1
2,6935	45,3	22,9
2,694	41,7	21,8
2,6945	37,9	20,9
2,695	34,1	20,6
2,6955	30,2	21,1
2,696	26,0	22,2
2,6965	21,5	23,6
2,697	17,6	24,8
2,6975	16,1	25,5
2,698	17,6	25,7
2,6985	21,7	25,4
2,699	26,6	24,7
2,6995	31,1	23,4
2,7	35,0	21,6
2,7005	38,3	19,9
2,701	40,8	18,9
2,7015	42,6	18,9
2,702	43,7	19,6
2,7025	44,1	20,5
2,703	43,8	21,4
2,7035	42,7	21,9
2,704	40,5	21,8
2,7045	36,7	21,1
2,705	31,3	19,6
2,7055	25,1	17,8
2,706	18,9	16,2
2,7065	13,9	15,1
2,707	10,6	14,8
2,7075	9,5	15,0
2,708	10,3	15,6
2,7085	12,2	16,2
2,709	14,1	16,2
2,7095	15,7	15,5
2,71	17,6	14,4
2,7105	20,6	13,4
2,711	24,6	12,8
2,7115	28,8	12,8
2,712	32,4	13,2
2,7125	34,7	14,3
2,713	35,5	16,0
2,7135	35,2	18,3
2,714	34,4	20,8
2,7145	33,6	22,9
2,715	33,0	24,2
2,7155	32,6	24,7
2,716	32,1	24,6
2,7165	30,9	24,1
2,717	29,2	23,3
2,7175	27,4	22,5
2,718	25,9	22,0
2,7185	25,2	21,8
2,719	25,0	21,7
2,7195	25,5	21,6
2,72	26,4	21,3
2,7205	27,6	20,6
2,721	28,9	19,6
2,7215	30,1	18,3
2,722	30,9	17,1
2,7225	31,3	16,2
2,723	31,7	15,9
2,7235	32,4	16,0
2,724	33,0	16,3
2,7245	33,1	16,6
2,725	33,0	16,5
2,7255	33,6	15,9
2,726	35,4	14,6
2,7265	38,4	13,1
2,727	41,6	12,1
2,7275	43,8	11,8
2,728	43,8	12,6
2,7285	41,8	14,1
2,729	38,1	16,0
2,7295	33,9	17,8
2,73	30,4	19,3
2,7305	28,5	20,3
2,731	28,7	20,9
2,7315	30,1	20,7
2,732	31,9	19,7
2,7325	33,2	18,0
2,733	33,7	16,1
2,7335	33,0	14,3
2,734	31,0	13,5
2,7345	27,8	13,8
2,735	24,1	14,4
2,7355	21,0	14,8
2,736	19,3	14,8
2,7365	19,0	14,6
2,737	19,5	14,3
2,7375	20,4	13,7
2,738	21,7	12,9
2,7385	23,8	12,2
2,739	27,3	11,7
2,7395	31,8	11,8
2,74	36,9	12,9
2,7405	41,9	14,5
2,741	46,1	16,3
2,7415	48,7	17,8
2,742	49,3	18,6
2,7425	48,4	18,6
2,743	46,4	17,9
2,7435	43,7	16,7
2,744	40,7	15,3
2,7445	37,6	14,0
2,745	34,5	13,2
2,7455	31,4	13,2
2,746	28,2	14,1
2,7465	24,9	15,7
2,747	21,5	17,7
2,7475	16,7	19,3
2,748	9,3	20,0
2,7485	-0,1	19,9
2,749	-9,6	19,3
2,7495	-17,1	18,3
2,75	-21,6	16,8
2,7505	-23,1	15,2
2,751	-21,8	14,4
2,7515	-17,8	14,8
2,752	-11,0	15,8
2,7525	-1,6	16,7
2,753	9,6	17,0
2,7535	21,0	16,6
2,754	30,8	15,5
2,7545	38,5	14,2
2,755	44,2	13,0
2,7555	48,6	12,1
2,756	52,4	11,6
2,7565	56,1	11,5
2,757	59,9	11,8
2,7575	63,9	12,4
2,758	67,6	13,4
2,7585	70,0	14,8
2,759	70,2	16,0
2,7595	67,8	16,3
2,76	63,5	15,2
2,7605	58,9	13,4
2,761	55,9	11,6
2,7615	56,3	10,6
2,762	60,2	10,9
2,7625	65,9	12,3
2,763	70,8	14,2
2,7635	72,7	15,9
2,764	71,1	17,0
2,7645	66,5	17,5
2,765	60,3	17,4
2,7655	53,8	16,8
2,766	48,4	15,9
2,7665	44,7	14,6
2,767	42,2	13,0
2,7675	40,4	12,0
2,768	38,4	11,9
2,7685	35,6	12,6
2,769	31,7	13,7
2,7695	26,4	14,8
2,77	20,2	15,6
2,7705	13,9	15,9
2,771	8,3	15,3
2,7715	3,8	13,9
2,772	0,8	11,9
2,7725	-0,1	9,9
2,773	1,7	8,8
2,7735	5,7	8,8
2,774	10,4	10,0
2,7745	14,3	11,8
2,775	16,6	13,7
2,7755	17,5	14,8
2,776	18,3	14,7
2,7765	19,9	13,8
2,777	22,8	12,6
2,7775	26,5	11,4
2,778	31,0	10,7
2,7785	35,9	10,8
2,779	40,4	11,9
2,7795	43,4	14,0
2,78	44,3	16,4
2,7805	43,5	18,3
2,781	42,3	19,3
2,7815	41,6	19,2
2,782	41,2	18,0
2,7825	41,0	16,1
2,783	40,5	13,5
2,7835	39,8	11,0
2,784	38,9	9,3
2,7845	38,3	9,1
2,785	38,0	10,1
2,7855	37,9	11,8
2,786	37,2	13,4
2,7865	35,0	14,6
2,787	31,0	14,8
2,7875	26,2	13,6
2,788	22,3	11,7
2,7885	20,7	9,7
2,789	20,7	8,4
2,7895	20,7	8,3
2,79	19,1	9,7
2,7905	15,8	12,3
2,791	12,6	15,3
2,7915	11,7	18,1
2,792	13,9	20,2
2,7925	18,4	20,9
2,793	23,5	20,1
2,7935	27,4	18,0
2,794	29,2	15,3
2,7945	29,0	12,3
2,795	27,6	10,1
2,7955	26,0	9,0
2,796	24,9	8,9
2,7965	24,7	9,6
2,797	25,0	10,4
2,7975	26,0	11,3
2,798	27,8	11,9
2,7985	30,6	11,9
2,799	34,3	11,4
2,7995	37,6	10,1
2,8	39,8	8,4
2,8005	40,0	7,0
2,801	38,3	6,6
2,8015	34,9	7,7
2,802	30,8	9,8
2,8025	27,1	11,9
2,803	24,5	13,0
2,8035	22,9	12,6
2,804	21,8	11,1
2,8045	21,0	9,0
2,805	20,5	6,8
2,8055	20,9	4,7
2,806	22,4	3,4
2,8065	24,8	3,2
2,807	27,2	4,3
2,8075	29,0	6,2
2,808	30,4	8,3
2,8085	31,6	10,2
2,809	32,9	10,9
2,8095	34,6	10,4
2,81	36,8	8,9
2,8105	38,8	7,2
2,811	39,8	5,8
2,8115	39,3	5,1
2,812	37,4	5,2
2,8125	34,7	6,2
2,813	32,1	8,0
2,8135	30,0	10,1
2,814	28,7	11,8
2,8145	28,0	12,5
2,815	27,8	12,3
2,8155	27,8	11,6
2,816	28,1	10,9
2,8165	29,3	10,3
2,817	31,3	9,8
2,8175	33,7	9,9
2,818	35,7	10,6
2,8185	36,7	11,3
2,819	36,7	11,9
2,8195	35,8	12,8
2,82	33,9	13,9
2,8205	30,9	15,0
2,821	27,3	15,5
2,8215	23,8	15,1
2,822	21,2	14,2
2,8225	19,7	13,3
2,823	18,9	13,1
2,8235	18,7	13,4
2,824	18,8	14,0
2,8245	19,1	14,6
2,825	19,2	15,2
2,8255	18,4	15,6
2,826	16,1	15,4
2,8265	12,2	14,5
2,827	7,1	13,3
2,8275	1,9	12,1
2,828	-2,0	11,0
2,8285	-3,5	10,3
2,829	-2,2	10,0
2,8295	1,6	10,3
2,83	6,9	11,3
2,8305	12,3	12,8
2,831	16,3	13,9
2,8315	17,3	14,3
2,832	15,1	14,0
2,8325	10,5	13,3
2,833	5,7	12,3
2,8335	2,2	11,2
2,834	0,4	10,5
2,8345	0,2	10,8
2,835	1,3	12,3
2,8355	4,0	14,2
2,836	8,4	15,9
2,8365	14,6	17,0
2,837	21,5	17,1
2,8375	28,3	16,3
2,838	34,4	15,0
2,8385	39,4	13,6
2,839	43,2	12,6
2,8395	45,6	12,4
2,84	46,2	13,1
2,8405	44,9	14,3
2,841	42,0	15,9
2,8415	38,5	17,4
2,842	35,3	18,3
2,8425	33,7	18,3
2,843	34,8	17,3
2,8435	39,8	15,6
2,844	47,4	13,7
2,8445	55,5	12,0
2,845	61,6	10,6
2,8455	64,1	9,9
2,846	62,7	10,0
2,8465	58,4	10,8
2,847	52,8	11,9
2,8475	47,0	12,8
2,848	41,8	13,3
2,8485	38,0	13,4
2,849	36,1	13,2
2,8495	35,6	13,0
2,85	35,5	13,0
2,8505	34,8	13,4
2,851	33,5	14,2
2,8515	32,2	15,2
2,852	31,1	16,5
2,8525	30,2	17,9
2,853	29,1	19,2
2,8535	27,5	20,1
2,854	25,5	20,2
2,8545	23,0	19,4
2,855	20,0	18,0
2,8555	17,2	16,5
2,856	14,8	15,4
2,8565	12,9	14,7
2,857	11,2	14,2
2,8575	10,1	13,7
2,858	10,4	13,1
2,8585	12,7	12,5
2,859	17,1	11,9
2,8595	22,9	11,2
2,86	28,7	10,3
2,8605	32,7	9,3
2,861	34,6	8,1
2,8615	34,9	6,8
2,862	34,8	5,7
2,8625	34,4	5,6
2,863	33,5	6,4
2,8635	31,6	7,8
2,864	29,1	9,3
2,8645	26,3	10,3
2,865	23,9	10,7
2,8655	22,3	10,3
2,866	21,4	9,3
2,8665	21,3	7,7
2,867	21,5	5,9
2,8675	21,7	4,7
2,868	22,2	4,3
2,8685	23,7	4,3
2,869	26,8	4,1
2,8695	31,1	3,5
2,87	35,3	2,2
2,8705	37,9	0,2
2,871	38,3	-2,3
2,8715	37,0	-4,5
2,872	34,9	-5,7
2,8725	32,8	-5,6
2,873	31,2	-4,3
2,8735	29,5	-2,0
2,874	27,7	0,5
2,8745	25,8	2,8
2,875	24,3	4,3
2,8755	23,4	4,8
2,876	22,8	3,9
2,8765	22,2	1,9
2,877	21,8	-0,4
2,8775	21,6	-2,2
2,878	21,1	-2,8
2,8785	20,7	-1,9
2,879	21,0	0,1
2,8795	22,9	2,6
2,88	26,7	4,8
2,8805	31,7	6,5
2,881	37,0	7,7
2,8815	41,2	8,1
2,882	43,5	7,9
2,8825	44,0	7,3
2,883	43,3	6,5
2,8835	42,2	5,8
2,884	41,5	5,4
2,8845	41,3	5,7
2,885	41,3	6,4
2,8855	41,3	7,2
2,886	40,4	7,3
2,8865	38,2	6,2
2,887	34,3	4,1
2,8875	29,5	1,7
2,888	24,5	-0,6
2,8885	20,1	-2,3
2,889	16,6	-3,2
2,8895	14,5	-3,3
2,89	13,8	-2,7
2,8905	14,0	-1,5
2,891	14,6	-0,2
2,8915	14,9	1,0
2,892	14,7	1,8
2,8925	14,1	1,8
2,893	13,5	0,9
2,8935	13,4	-0,4
2,894	14,1	-1,8
2,8945	15,5	-2,9
2,895	17,8	-3,4
2,8955	20,8	-3,3
2,896	24,4	-2,2
2,8965	27,6	-0,4
2,897	29,9	1,9
2,8975	31,2	3,9
2,898	31,8	4,9
2,8985	32,4	4,9
2,899	32,9	4,0
2,8995	33,3	2,9
2,9	33,6	1,8
2,9005	33,8	0,9
2,901	34,3	0,7
2,9015	35,0	1,2
2,902	35,8	2,4
2,9025	36,5	3,9
2,903	36,6	5,1
2,9035	35,7	5,8
2,904	33,0	5,8
2,9045	28,7	5,1
2,905	23,6	3,9
2,9055	18,6	2,7
2,906	13,7	1,9
2,9065	8,8	1,9
2,907	3,8	2,5
2,9075	-0,5	3,4
2,908	-3,3	4,5
2,9085	-4,2	5,5
2,909	-2,9	6,1
2,9095	0,6	5,9
2,91	6,0	5,1
2,9105	12,6	4,0
2,911	19,8	3,1
2,9115	26,9	2,8
2,912	34,0	3,4
2,9125	41,1	4,8
2,913	47,8	6,8
2,9135	53,2	8,3
2,914	57,1	8,9
2,9145	60,1	8,6
2,915	63,4	7,9
2,9155	67,4	7,5
2,916	71,1	7,3
2,9165	73,2	7,2
2,917	72,4	7,0
2,9175	68,3	7,3
2,918	61,4	8,3
2,9185	53,0	9,7
2,919	45,0	11,1
2,9195	38,4	12,0
2,92	33,1	12,2
2,9205	29,1	11,5
2,921	27,0	10,1
2,9215	27,0	8,5
2,922	28,5	7,2
2,9225	30,4	6,6
2,923	31,6	7,0
2,9235	31,8	8,1
2,924	30,5	9,7
2,9245	27,5	11,3
2,925	22,9	12,7
2,9255	17,7	13,1
2,926	13,0	12,5
2,9265	9,5	11,1
2,927	7,4	9,3
2,9275	6,1	7,8
2,928	5,1	6,4
2,9285	4,1	5,2
2,929	3,0	4,3
2,9295	2,2	3,8
2,93	2,1	3,4
2,9305	3,2	2,8
2,931	5,5	1,6
2,9315	9,2	0,1
2,932	14,7	-1,4
2,9325	22,0	-2,5
2,933	30,3	-3,4
2,9335	37,7	-4,3
2,934	43,1	-5,0
2,9345	46,3	-5,1
2,935	47,6	-4,4
2,9355	47,1	-3,6
2,936	45,2	-3,3
2,9365	42,8	-3,9
2,937	41,8	-5,3
2,9375	43,8	-7,2
2,938	48,9	-9,1
2,9385	55,4	-10,5
2,939	61,3	-11,3
2,9395	65,6	-11,3
2,94	68,2	-10,4
2,9405	69,1	-9,0
2,941	67,9	-7,2
2,9415	63,9	-5,5
2,942	56,7	-4,3
2,9425	47,0	-4,5
2,943	36,5	-6,1
2,9435	27,2	-8,6
2,944	20,0	-11,3
2,9445	15,3	-13,6
2,945	12,5	-15,0
2,9455	11,1	-15,3
2,946	10,8	-14,6
2,9465	12,0	-13,1
2,947	15,3	-11,4
2,9475	20,5	-10,2
2,948	26,3	-9,7
2,9485	31,8	-10,0
2,949	36,3	-10,8
2,9495	39,7	-11,6
2,95	42,0	-12,4
2,9505	42,8	-13,2
2,951	42,1	-13,2
2,9515	40,6	-12,2
2,952	39,4	-10,1
2,9525	39,5	-7,6
2,953	41,1	-5,4
2,9535	43,6	-4,3
2,954	46,6	-4,4
2,9545	49,8	-5,5
2,955	52,4	-7,0
2,9555	53,0	-8,6
2,956	50,7	-10,2
2,9565	45,3	-11,4
2,957	38,0	-11,8
2,9575	30,3	-11,2
2,958	24,1	-10,0
2,9585	20,5	-8,7
2,959	19,7	-7,8
2,9595	20,5	-7,9
2,96	21,6	-8,7
2,9605	22,3	-9,8
2,961	22,7	-10,8
2,9615	22,8	-11,5
2,962	22,5	-11,3
2,9625	22,1	-9,8
2,963	21,9	-7,3
2,9635	22,3	-4,5
2,964	23,1	-2,3
2,9645	24,4	-1,3
2,965	26,2	-1,8
2,9655	28,2	-3,1
2,966	29,7	-4,8
2,9665	30,2	-6,7
2,967	29,3	-8,5
2,9675	26,8	-9,8
2,968	23,0	-10,0
2,9685	18,5	-9,3
2,969	14,2	-7,7
2,9695	11,6	-5,7
2,97	11,4	-3,3
2,9705	13,9	-1,1
2,971	18,5	0,4
2,9715	23,7	1,0
2,972	28,1	0,7
2,9725	31,3	0,0
2,973	33,3	-0,1
2,9735	34,5	0,8
2,974	35,3	2,1
2,9745	36,5	3,7
2,975	38,3	5,1
2,9755	40,6	6,1
2,976	42,1	6,2
2,9765	41,0	5,1
2,977	36,2	3,2
2,9775	28,6	1,2
2,978	19,9	-0,3
2,9785	12,3	-1,0
2,979	7,0	-0,9
2,9795	4,6	-0,2
2,98	5,2	0,9
2,9805	8,6	1,9
2,981	14,3	2,8
2,9815	21,3	3,1
2,982	28,4	2,8
2,9825	34,5	2,2
2,983	39,3	1,3
2,9835	42,9	-0,1
2,984	45,7	-1,3
2,9845	47,4	-1,7
2,985	47,9	-1,2
2,9855	47,3	0,1
2,986	46,2	1,8
2,9865	45,3	3,3
2,987	44,6	4,3
2,9875	44,4	4,3
2,988	45,2	3,0
2,9885	47,3	0,9
2,989	50,4	-1,4
2,9895	52,9	-3,2
2,99	53,5	-4,3
2,9905	51,2	-4,4
2,991	46,1	-3,8
2,9915	38,9	-2,6
2,992	31,1	-1,2
2,9925	23,3	-0,3
2,993	16,5	-0,3
2,9935	10,7	-0,9
2,994	6,2	-1,9
2,9945	2,8	-2,5
2,995	0,7	-2,7
2,9955	0,2	-2,3
2,996	1,1	-1,4
2,9965	3,1	0,0
2,997	5,5	1,8
2,9975	7,6	3,6
2,998	9,2	4,8
2,9985	10,5	5,2
2,999	12,5	4,5
2,9995	16,0	2,9
3	21,3	0,8
3,0005	28,0	-1,3
3,001	35,3	-2,3
3,0015	42,8	-2,1
3,002	49,9	-1,1
3,0025	56,0	0,3
3,003	60,8	1,7
3,0035	64,3	2,5
3,004	66,5	2,5
3,0045	67,8	1,4
3,005	67,8	-0,1
3,0055	65,3	-1,4
3,006	59,4	-1,7
3,0065	50,5	-0,9
3,007	40,5	0,3
3,0075	31,0	1,4
3,008	22,7	2,3
3,0085	16,3	2,9
3,009	12,3	3,1
3,0095	11,3	2,5
3,01	12,2	1,1
3,0105	13,3	-0,7
3,011	13,6	-2,5
3,0115	13,0	-3,9
3,012	12,1	-4,6
3,0125	11,6	-4,4
3,013	12,3	-3,5
3,0135	14,5	-2,4
3,014	18,3	-1,4
3,0145	23,7	-0,9
3,015	31,0	-0,8
3,0155	39,8	-0,9
3,016	48,8	-1,1
3,0165	56,0	-1,3
3,017	60,2	-1,5
3,0175	60,9	-1,6
3,018	59,1	-1,0
3,0185	55,7	0,2
3,019	51,6	1,6
3,0195	47,2	2,8
3,02	43,0	3,3
3,0205	39,6	3,0
3,021	36,9	1,7
3,0215	35,2	-0,4
3,022	33,9	-2,7
3,0225	32,5	-4,2
3,023	30,6	-4,6
3,0235	28,3	-3,8
3,024	26,1	-2,4
3,0245	24,3	-0,8
3,025	22,8	0,6
3,0255	21,8	1,7
3,026	21,6	2,0
3,0265	22,5	1,6
3,027	24,8	0,7
3,0275	27,5	-0,5
3,028	29,6	-1,7
3,0285	30,6	-2,7
3,029	31,0	-3,0
3,0295	31,5	-2,3
3,03	32,7	-0,8
3,0305	34,3	1,0
3,031	35,6	2,5
3,0315	35,8	3,4
3,032	34,5	3,6
3,0325	32,3	3,1
3,033	29,7	2,2
3,0335	27,2	0,9
3,034	25,5	0,1
3,0345	24,9	0,1
3,035	25,8	0,9
3,0355	28,0	2,1
3,036	30,9	3,3
3,0365	33,9	4,2
3,037	36,7	4,9
3,0375	39,4	5,3
3,038	42,3	5,5
3,0385	45,1	5,4
3,039	47,8	5,1
3,0395	50,1	4,7
3,04	51,6	4,6
3,0405	52,1	4,8
3,041	52,0	5,1
3,0415	51,6	5,8
3,042	50,9	7,0
3,0425	49,9	8,4
3,043	48,7	9,4
3,0435	47,4	9,4
3,044	45,8	8,3
3,0445	44,3	6,7
3,045	43,2	5,0
3,0455	43,0	3,9
3,046	43,6	3,9
3,0465	44,2	4,9
3,047	43,5	6,7
3,0475	41,3	8,5
3,048	37,3	9,5
3,0485	31,8	9,2
3,049	24,3	7,8
3,0495	15,6	5,6
3,05	6,8	3,3
3,0505	-0,6	1,7
3,051	-5,2	1,3
3,0515	-6,8	2,3
3,052	-6,0	4,2
3,0525	-3,6	6,0
3,053	0,1	6,9
3,0535	4,4	6,7
3,054	8,8	5,4
3,0545	11,7	3,3
3,055	12,2	0,8
3,0555	10,5	-1,8
3,056	8,1	-3,6
3,0565	6,3	-4,1
3,057	5,1	-3,2
3,0575	4,2	-1,5
3,058	4,0	0,6
3,0585	5,4	2,6
3,059	8,8	4,2
3,0595	13,8	4,9
3,06	19,4	4,6
3,0605	24,6	3,5
3,061	28,5	2,3
3,0615	31,1	1,4
3,062	32,8	1,4
3,0625	34,6	2,3
3,063	36,8	4,1
3,0635	39,5	6,2
3,064	42,1	8,1
3,0645	43,9	9,5
3,065	44,4	10,5
3,0655	44,1	10,9
3,066	43,7	10,7
3,0665	43,6	9,9
3,067	43,9	8,5
3,0675	44,7	7,4
3,068	45,6	7,0
3,0685	46,3	7,5
3,069	46,5	8,5
3,0695	46,3	9,7
3,07	45,3	10,7
3,0705	43,8	10,9
3,071	42,2	10,2
3,0715	41,2	8,3
3,072	41,0	5,7
3,0725	41,4	3,2
3,073	42,5	1,4
3,0735	45,0	0,6
3,074	49,3	0,9
3,0745	54,3	2,0
3,075	58,1	3,5
3,0755	59,1	4,9
3,076	56,9	5,5
3,0765	52,0	4,8
3,077	45,8	3,4
3,0775	39,8	1,9
3,078	35,0	1,0
3,0785	31,6	1,0
3,079	29,5	2,2
3,0795	28,2	4,4
3,08	27,4	7,1
3,0805	26,8	9,8
3,081	25,5	11,7
3,0815	23,2	12,4
3,082	20,0	11,8
3,0825	16,8	10,2
3,083	14,3	8,2
3,0835	13,4	6,5
3,084	14,2	5,9
3,0845	16,4	6,7
3,085	19,8	8,3
3,0855	23,8	10,0
3,086	27,8	11,3
3,0865	31,1	12,2
3,087	33,7	12,6
3,0875	35,3	12,3
3,088	36,2	11,3
3,0885	36,3	9,5
3,089	35,7	7,5
3,0895	34,4	5,6
3,09	32,8	4,1
3,0905	31,4	3,3
3,091	30,9	3,2
3,0915	31,0	3,6
3,092	31,3	4,0
3,0925	31,4	3,9
3,093	31,7	3,2
3,0935	32,6	2,2
3,094	34,4	1,6
3,0945	36,9	1,7
3,095	39,3	2,5
3,0955	40,6	3,8
3,096	39,5	5,8
3,0965	35,7	8,1
3,097	29,8	10,4
3,0975	22,9	12,0
3,098	17,1	12,4
3,0985	13,9	11,7
3,099	14,2	10,1
3,0995	17,3	8,2
3,1	22,4	6,3
3,1005	28,2	5,1
3,101	33,4	4,7
3,1015	37,0	5,5
3,102	38,1	7,3
3,1025	37,2	9,6
3,103	35,5	11,8
3,1035	33,9	13,5
3,104	32,9	14,3
3,1045	32,3	14,1
3,105	32,1	13,2
3,1055	32,1	12,0
3,106	32,4	11,2
3,1065	33,3	11,1
3,107	34,7	11,4
3,1075	36,1	11,9
3,108	36,8	12,2
3,1085	36,5	12,2
3,109	35,7	11,6
3,1095	34,9	10,3
3,11	34,5	8,4
3,1105	35,1	6,2
3,111	37,3	4,3
3,1115	40,8	2,9
3,112	45,0	2,0
3,1125	48,9	1,5
3,113	51,9	1,4
3,1135	53,8	2,0
3,114	54,4	3,1
3,1145	54,1	4,5
3,115	52,9	5,7
3,1155	51,3	6,3
3,116	50,0	6,1
3,1165	49,5	5,0
3,117	49,8	3,4
3,1175	50,5	2,0
3,118	50,7	2,0
3,1185	49,8	3,7
3,119	47,5	6,5
3,1195	44,1	9,6
3,12	40,1	11,9
3,1205	35,5	12,8
3,121	30,7	12,2
3,1215	26,0	10,3
3,122	22,2	8,2
3,1225	19,7	7,0
3,123	18,4	7,1
3,1235	17,7	8,1
3,124	17,1	9,2
3,1245	16,1	10,1
3,125	14,8	10,4
3,1255	13,4	10,3
3,126	12,0	9,4
3,1265	10,7	7,9
3,127	9,8	6,4
3,1275	9,9	5,2
3,128	11,3	4,5
3,1285	14,1	4,5
3,129	17,4	5,8
3,1295	19,8	8,3
3,13	20,7	11,5
3,1305	20,1	14,6
3,131	18,9	16,8
3,1315	18,1	17,8
3,132	18,3	17,4
3,1325	20,2	16,2
3,133	23,4	14,6
3,1335	27,1	12,9
3,134	30,8	11,8
3,1345	34,9	11,4
3,135	39,9	11,8
3,1355	46,3	12,4
3,136	54,1	12,9
3,1365	62,5	13,0
3,137	70,0	12,5
3,1375	74,7	11,4
3,138	75,9	10,0
3,1385	73,8	8,6
3,139	69,4	7,3
3,1395	63,1	6,5
3,14	55,3	6,3
3,1405	46,8	6,8
3,141	38,9	8,0
3,1415	32,7	9,5
3,142	28,2	11,1
3,1425	24,6	12,6
3,143	21,0	13,5
3,1435	17,3	13,7
3,144	13,8	13,2
3,1445	11,3	12,3
3,145	10,9	11,3
3,1455	13,1	10,7
3,146	17,9	10,8
3,1465	23,8	11,7
3,147	29,3	12,9
3,1475	34,1	13,9
3,148	38,3	14,5
3,1485	42,6	14,5
3,149	46,5	14,1
3,1495	49,7	13,4
3,15	51,8	12,3
3,1505	53,2	11,2
3,151	54,2	10,5
3,1515	54,7	11,0
3,152	54,5	12,4
3,1525	53,6	14,4
3,153	52,4	16,1
3,1535	51,1	17,4
3,154	50,1	17,8
3,1545	49,4	17,6
3,155	49,0	16,9
3,1555	48,5	15,8
3,156	47,7	14,8
3,1565	45,9	14,4
3,157	43,4	14,8
3,1575	40,7	15,6
3,158	38,8	16,8
3,1585	37,9	18,2
3,159	37,6	19,2
3,1595	37,3	19,3
3,16	37,1	18,1
3,1605	37,1	16,2
3,161	37,6	14,3
3,1615	38,4	13,2
3,162	39,3	13,1
3,1625	39,9	14,0
3,163	39,8	15,6
3,1635	38,7	17,3
3,164	36,3	18,9
3,1645	32,7	19,6
3,165	28,1	19,0
3,1655	23,6	17,3
3,166	20,1	15,0
3,1665	17,7	12,8
3,167	16,6	11,2
3,1675	16,6	10,7
3,168	17,5	11,7
3,1685	19,3	13,6
3,169	21,7	15,6
3,1695	25,6	16,9
3,17	31,4	17,3
3,1705	38,5	16,8
3,171	45,0	16,1
3,1715	48,8	15,4
3,172	49,0	14,8
3,1725	46,3	14,1
3,173	41,6	13,3
3,1735	35,6	12,7
3,174	29,3	12,3
3,1745	24,0	12,3
3,175	20,4	12,9
3,1755	18,4	13,8
3,176	17,1	14,4
3,1765	16,0	14,2
3,177	15,1	12,8
3,1775	14,3	11,0
3,178	13,8	9,8
3,1785	13,7	9,8
3,179	13,8	11,4
3,1795	13,9	13,9
3,18	13,8	16,5
3,1805	12,9	18,5
3,181	11,9	19,2
3,1815	11,6	18,6
3,182	13,0	17,2
3,1825	16,5	15,8
3,183	21,6	14,4
3,1835	26,7	13,2
3,184	30,7	12,4
3,1845	33,0	12,6
3,185	34,3	13,7
3,1855	35,3	15,3
3,186	36,3	16,8
3,1865	37,2	18,0
3,187	37,5	18,7
3,1875	36,9	18,8
3,188	34,9	18,2
3,1885	31,6	16,8
3,189	28,1	14,9
3,1895	25,7	13,0
3,19	25,6	12,0
3,1905	28,3	12,1
3,191	34,1	13,1
3,1915	42,5	14,5
3,192	51,9	16,0
3,1925	59,5	17,1
3,193	61,9	17,3
3,1935	57,4	16,3
3,194	46,7	14,7
3,1945	32,9	13,2
3,195	19,8	12,3
3,1955	9,9	12,1
3,196	4,4	12,9
3,1965	3,3	14,6
3,197	4,8	16,9
3,1975	7,4	19,3
3,198	10,4	21,3
3,1985	13,9	22,4
3,199	18,5	22,5
3,1995	23,9	21,6
3,2	29,2	19,9
3,2005	32,8	17,9
3,201	34,1	16,2
3,2015	33,6	15,3
3,202	33,1	15,6
3,2025	34,0	16,7
3,203	37,1	18,2
3,2035	41,3	19,7
3,204	45,3	20,7
3,2045	48,3	21,2
3,205	50,0	21,0
3,2055	50,2	20,4
3,206	48,9	19,8
3,2065	46,2	19,5
3,207	42,9	19,9
3,2075	40,2	21,0
3,208	39,2	22,6
3,2085	41,0	24,5
3,209	45,5	26,0
3,2095	51,1	26,5
3,21	54,8	25,3
3,2105	54,3	23,2
3,211	49,0	21,2
3,2115	40,6	20,1
3,212	31,2	20,3
3,2125	22,6	21,4
3,213	15,8	22,9
3,2135	10,6	24,3
3,214	6,7	24,9
3,2145	4,0	24,5
3,215	2,9	23,1
3,2155	3,5	21,4
3,216	6,2	20,1
3,2165	10,8	19,1
3,217	17,3	18,4
3,2175	24,3	18,5
3,218	30,3	19,7
3,2185	33,9	21,8
3,219	35,1	24,1
3,2195	34,8	25,7
3,22	34,6	26,3
3,2205	34,8	25,8
3,221	34,8	24,3
3,2215	34,2	22,2
3,222	33,2	19,8
3,2225	32,7	17,5
3,223	32,7	15,9
3,2235	32,6	15,2
3,224	31,9	15,4
3,2245	30,7	16,3
3,225	29,4	17,8
3,2255	28,7	19,3
3,226	28,8	20,4
3,2265	29,4	20,5
3,227	30,5	19,7
3,2275	31,8	18,7
3,228	33,0	17,8
3,2285	33,9	17,4
3,229	34,5	17,8
3,2295	35,5	18,8
3,23	37,8	20,1
3,2305	42,4	21,7
3,231	49,2	22,9
3,2315	57,0	23,4
3,232	64,4	23,0
3,2325	70,2	22,0
3,233	73,6	20,8
3,2335	74,8	19,9
3,234	74,9	19,7
3,2345	74,8	20,2
3,235	73,8	21,3
3,2355	70,7	22,8
3,236	65,1	24,4
3,2365	57,3	26,1
3,237	48,3	27,4
3,2375	39,2	28,2
3,238	30,9	28,6
3,2385	23,6	29,2
3,239	16,9	29,8
3,2395	10,2	30,2
3,24	3,2	29,9
3,2405	-4,1	29,0
3,241	-10,5	28,1
3,2415	-15,3	27,7
3,242	-17,8	27,8
3,2425	-18,2	28,1
3,243	-15,8	27,8
3,2435	-10,8	26,7
3,244	-3,9	25,0
3,2445	4,1	23,2
3,245	12,6	22,1
3,2455	21,8	21,9
3,246	31,3	22,7
3,2465	39,6	24,3
3,247	45,6	26,4
3,2475	48,4	28,6
3,248	48,4	30,3
3,2485	46,4	31,3
3,249	43,3	31,4
3,2495	40,3	31,2
3,25	38,0	31,0
3,2505	37,0	30,7
3,251	37,2	30,7
3,2515	38,1	31,1
3,252	39,1	32,0
3,2525	39,4	33,3
3,253	38,9	34,3
3,2535	37,8	34,6
3,254	36,7	34,0
3,2545	36,3	32,4
3,255	36,8	29,9
3,2555	38,2	26,9
3,256	39,9	24,2
3,2565	41,0	22,2
3,257	40,9	20,9
3,2575	39,4	20,3
3,258	37,0	20,4
3,2585	34,6	20,9
3,259	33,2	21,4
3,2595	33,0	21,3
3,26	33,9	20,1
3,2605	35,5	18,5
3,261	37,1	17,2
3,2615	38,1	16,8
3,262	38,6	17,3
3,2625	39,1	18,6
3,263	39,5	20,4
3,2635	39,2	22,3
3,264	37,3	23,9
3,2645	33,3	24,7
3,265	28,4	24,3
3,2655	23,7	22,8
3,266	20,5	20,4
3,2665	19,5	17,4
3,267	21,0	14,2
3,2675	25,2	11,8
3,268	31,5	11,2
3,2685	39,7	12,1
3,269	48,6	13,8
3,2695	56,4	15,4
3,27	60,9	16,4
3,2705	60,8	16,5
3,271	56,8	15,6
3,2715	50,2	13,7
3,272	43,0	11,0
3,2725	36,8	8,3
3,273	32,2	6,2
3,2735	29,3	5,3
3,274	27,2	5,7
3,2745	24,8	6,8
3,275	21,6	8,3
3,2755	18,2	9,6
3,276	14,8	10,3
3,2765	12,3	9,9
3,277	10,7	8,8
3,2775	10,3	7,5
3,278	11,0	6,6
3,2785	12,7	6,3
3,279	14,9	6,5
3,2795	17,7	6,9
3,28	20,8	7,5
3,2805	24,2	7,9
3,281	27,4	7,9
3,2815	30,2	7,3
3,282	32,4	6,3
3,2825	34,5	5,1
3,283	37,2	3,9
3,2835	41,1	2,7
3,284	46,6	1,7
3,2845	52,9	1,5
3,285	58,6	2,6
3,2855	62,3	4,8
3,286	63,3	7,3
3,2865	62,2	9,7
3,287	60,0	11,4
3,2875	57,9	12,3
3,288	56,3	12,3
3,2885	54,9	11,5
3,289	52,9	10,2
3,2895	49,5	8,8
3,29	44,2	7,7
3,2905	37,7	7,3
3,291	31,0	7,3
3,2915	25,4	7,5
3,292	21,3	7,3
3,2925	18,4	6,2
3,293	16,9	3,8
3,2935	17,2	0,4
3,294	19,5	-2,7
3,2945	23,5	-4,7
3,295	27,8	-5,2
3,2955	31,3	-4,6
3,296	33,4	-3,4
3,2965	34,2	-1,8
3,297	34,1	0,2
3,2975	33,8	2,5
3,298	33,6	4,7
3,2985	33,8	6,4
3,299	34,5	7,3
3,2995	35,8	7,3
3,3	38,0	6,5
3,3005	41,0	5,4
3,301	44,8	4,6
3,3015	48,8	4,6
3,302	52,6	5,3
3,3025	55,8	6,3
3,303	57,9	7,3
3,3035	58,8	7,9
3,304	58,3	7,7
3,3045	56,8	6,5
3,305	54,6	4,4
3,3055	51,7	1,9
3,306	47,8	-0,4
3,3065	42,7	-1,8
3,307	36,4	-1,7
3,3075	29,9	0,0
3,308	24,4	2,7
3,3085	20,1	5,7
3,309	16,3	7,9
3,3095	12,6	8,7
3,31	9,7	7,7
3,3105	9,0	5,7
3,311	11,6	3,7
3,3115	17,8	2,3
3,312	26,1	1,6
3,3125	35,1	1,8
3,313	42,8	2,7
3,3135	48,2	4,2
3,314	50,9	6,2
3,3145	51,1	8,3
3,315	48,9	10,2
3,3155	44,6	11,4
3,316	38,8	12,0
3,3165	32,2	12,0
3,317	25,5	11,5
3,3175	19,5	11,0
3,318	15,0	11,2
3,3185	13,1	12,3
3,319	13,9	14,4
3,3195	17,2	16,8
3,32	22,0	18,6
3,3205	27,0	19,3
3,321	30,8	18,8
3,3215	32,7	17,4
3,322	33,1	15,5
3,3225	32,9	14,0
3,323	33,0	13,2
3,3235	33,3	13,3
3,324	33,5	14,0
3,3245	33,6	15,3
3,325	34,1	16,9
3,3255	35,4	18,5
3,326	37,1	19,3
3,3265	38,3	18,7
3,327	39,0	17,0
3,3275	39,6	14,9
3,328	40,9	12,9
3,3285	42,7	11,6
3,329	44,6	11,2
3,3295	46,0	11,9
3,33	46,8	13,8
3,3305	46,9	16,5
3,331	46,4	19,2
3,3315	44,9	21,3
3,332	41,7	22,2
3,3325	35,8	21,9
3,333	27,6	20,4
3,3335	18,7	18,3
3,334	11,3	16,1
3,3345	7,1	14,6
3,335	6,8	14,3
3,3355	9,3	15,0
3,336	13,4	16,2
3,3365	17,5	17,5
3,337	20,4	18,7
3,3375	21,1	19,3
3,338	18,7	19,2
3,3385	14,2	18,3
3,339	9,4	16,8
3,3395	6,1	15,3
3,34	5,2	13,9
3,3405	6,2	13,0
3,341	8,8	12,6
3,3415	13,0	13,1
3,342	18,5	14,3
3,3425	24,7	15,4
3,343	31,2	15,4
3,3435	38,1	14,1
3,344	45,0	12,1
3,3445	51,3	10,3
3,345	55,8	9,5
3,3455	57,7	9,7
3,346	56,8	10,8
3,3465	54,5	12,8
3,347	52,2	15,4
3,3475	50,8	18,0
3,348	49,8	20,2
3,3485	48,7	21,5
3,349	47,6	22,0
3,3495	46,9	21,8
3,35	47,0	20,8
3,3505	47,0	19,3
3,351	46,0	18,1
3,3515	43,5	17,4
3,352	39,9	17,1
3,3525	36,2	17,0
3,353	33,2	16,7
3,3535	31,4	16,3
3,354	30,7	15,6
3,3545	31,0	14,6
3,355	31,9	13,1
3,3555	32,7	10,9
3,356	32,8	8,6
3,3565	32,1	6,9
3,357	31,4	6,2
3,3575	31,3	6,4
3,358	32,2	7,5
3,3585	33,7	9,3
3,359	35,1	11,5
3,3595	35,8	13,2
3,36	35,9	13,9
3,3605	35,5	13,4
3,361	34,9	12,5
3,3615	34,2	11,7
3,362	33,9	11,2
3,3625	34,2	11,5
3,363	34,9	12,4
3,3635	35,6	13,6
3,364	36,2	14,2
3,3645	36,6	14,0
3,365	37,2	12,9
3,3655	38,0	11,4
3,366	38,8	9,9
3,3665	39,3	8,7
3,367	39,0	7,9
3,3675	38,0	7,8
3,368	36,6	8,4
3,3685	35,3	9,4
3,369	34,2	10,5
3,3695	33,0	11,5
3,37	31,3	12,3
3,3705	29,2	12,5
3,371	27,0	11,9
3,3715	25,1	10,3
3,372	23,8	8,1
3,3725	23,2	5,8
3,373	23,2	4,4
3,3735	23,5	4,2
